time	x	y	pressure	tiltX	tiltY	azimuth	sidePressure	rotation
8.021652653929777	491.0	987.0	0.07473869	0.7679342	0.73306066	0.7504608	0.0	0.0
8.079950721003115	500.0	998.0	0.08206302	0.73302656	0.698153	0.7502036	0.0	0.0
8.096854589995928	503.0	1000.0	0.08792248	0.73302656	0.698153	0.7502036	0.0	0.0
8.114370772032999	509.0	1005.0	0.0957351	0.6981189	0.698153	0.78543276	0.0	0.0
8.131012100027874	522.0	1013.0	0.10843061	0.6981189	0.698153	0.78543276	0.0	0.0
8.146852648002096	533.0	1018.0	0.124544136	0.6632113	0.698153	0.821098	0.0	0.0
8.164393294951878	545.0	1024.0	0.14605936	0.6283036	0.6632454	0.82172465	0.0	0.0
8.181081032031216	567.0	1032.0	0.15094225	0.6283036	0.6283377	0.785434	0.0	0.0
8.196711641037837	584.0	1037.0	0.15191883	0.59339595	0.6283377	0.8225576	0.0	0.0
8.214423227938823	603.0	1041.0	0.15240711	0.5584883	0.59343004	0.8236202	0.0	0.0
8.23112327803392	629.0	1046.0	0.15240711	0.5235807	0.59343004	0.862894	0.0	0.0
8.246731436927803	647.0	1048.0	0.15191883	0.488673	0.5585224	0.86581403	0.0	0.0
8.26446519093588	667.0	1050.0	0.15191883	0.45376536	0.52361476	0.8693855	0.0	0.0
8.28114509198349	695.0	1052.0	0.15191883	0.41885772	0.52361476	0.9139362	0.0	0.0
8.297746503958479	714.0	1052.0	0.1577783	0.34904242	0.52361476	1.0083622	0.0	0.0
8.314528267015703	731.0	1052.0	0.1611963	0.34904242	0.52361476	1.0083622	0.0	0.0
8.331205282942392	754.0	1050.0	0.16314946	0.31413478	0.52361476	1.0582476	0.0	0.0
8.347070430987515	767.0	1048.0	0.16461433	0.2792271	0.52361476	1.1098794	0.0	0.0
8.36454761994537	777.0	1047.0	0.16803235	0.2792271	0.52361476	1.1098794	0.0	0.0
8.381240459973924	789.0	1045.0	0.16900893	0.24431947	0.52361476	1.1631938	0.0	0.0
8.397426313953474	794.0	1044.0	0.16900893	0.24431947	0.52361476	1.1631938	0.0	0.0
8.41459300997667	797.0	1043.0	0.16803235	0.20941181	0.52361476	1.218093	0.0	0.0
8.431275545968674	798.0	1043.0	0.16705577	0.20941181	0.52361476	1.218093	0.0	0.0
8.447435053996742	798.0	1042.0	0.16656749	0.20941181	0.52361476	1.218093	0.0	0.0
8.46464402996935	798.0	1043.0	0.16217288	0.20941181	0.52361476	1.218093	0.0	0.0
8.481321683968417	798.0	1043.0	0.16217288	0.20941181	0.52361476	1.218093	0.0	0.0
8.497667921939865	798.0	1043.0	0.16021973	0.20941181	0.52361476	1.218093	0.0	0.0
8.514158278005198	797.0	1043.0	0.15924315	0.20941181	0.52361476	1.218093	0.0	0.0
8.531379126012325	796.0	1043.0	0.15729	0.20941181	0.52361476	1.218093	0.0	0.0
8.547466863994487	796.0	1044.0	0.15631342	0.20941181	0.52361476	1.218093	0.0	0.0
8.56473067193292	796.0	1044.0	0.15533684	0.20941181	0.52361476	1.218093	0.0	0.0
8.581403856980614	796.0	1044.0	0.15387198	0.20941181	0.52361476	1.218093	0.0	0.0
8.597488967934623	796.0	1044.0	0.14996567	0.20941181	0.52361476	1.218093	0.0	0.0
8.614730569999665	796.0	1044.0	0.13434044	0.20941181	0.52361476	1.218093	0.0	0.0
8.631434325943701	796.0	1044.0	0.117708094	0.20941181	0.52361476	1.218093	0.0	0.0
8.648120193975046	796.0	1044.0	0.0957351	0.20941181	0.52361476	1.218093	0.0	0.0
Pause
9.631399677949958	796.0	1035.0	0.102571145	0.2792271	0.4188918	0.9986814	0.0	0.0
9.648948827991262	794.0	1029.0	0.10305943	0.2792271	0.4188918	0.9986814	0.0	0.0
9.66509500099346	791.0	1018.0	0.10940719	0.24431947	0.45379946	1.0982906	0.0	0.0
9.681430874974467	789.0	1010.0	0.12503242	0.2792271	0.4887071	1.0762686	0.0	0.0
9.698994447942823	787.0	999.0	0.13186847	0.2792271	0.4887071	1.0762686	0.0	0.0
9.714963359991089	787.0	981.0	0.13336386	0.2792271	0.4887071	1.0762686	0.0	0.0
9.730495568015613	788.0	966.0	0.13434044	0.2792271	0.4887071	1.0762686	0.0	0.0
9.74903429695405	790.0	952.0	0.13434044	0.2792271	0.52361476	1.1098794	0.0	0.0
9.765738248010166	794.0	928.0	0.13089189	0.2792271	0.52361476	1.1098794	0.0	0.0
9.781494040973485	797.0	913.0	0.12991531	0.2792271	0.5585224	1.1406263	0.0	0.0
9.799066919949837	800.0	899.0	0.12552072	0.24431947	0.5585224	1.1911973	0.0	0.0
9.815769784967415	805.0	878.0	0.12259098	0.24431947	0.5585224	1.1911973	0.0	0.0
9.831502684974112	808.0	867.0	0.121614404	0.24431947	0.5585224	1.1911973	0.0	0.0
9.849112055031583	811.0	857.0	0.124544136	0.24431947	0.5585224	1.1911973	0.0	0.0
9.86439745198004	815.0	848.0	0.1264973	0.24431947	0.5585224	1.1911973	0.0	0.0
9.8815466290107	817.0	844.0	0.12747388	0.24431947	0.5585224	1.1911973	0.0	0.0
9.896889264928177	819.0	842.0	0.12747388	0.24431947	0.59343004	1.2167792	0.0	0.0
9.915844955015928	821.0	841.0	0.1264973	0.24431947	0.59343004	1.2167792	0.0	0.0
9.930703275022097	823.0	842.0	0.126009	0.24431947	0.59343004	1.2167792	0.0	0.0
9.946679631946608	824.0	843.0	0.12503242	0.24431947	0.6283377	1.2402657	0.0	0.0
9.96587323595304	824.0	845.0	0.11917296	0.24431947	0.6283377	1.2402657	0.0	0.0
9.980162750929594	825.0	848.0	0.11673152	0.24431947	0.6283377	1.2402657	0.0	0.0
9.999277014983818	824.0	850.0	0.11429007	0.24431947	0.6283377	1.2402657	0.0	0.0
10.015537875937298	824.0	851.0	0.10061799	0.24431947	0.6283377	1.2402657	0.0	0.0
10.032289366936311	824.0	851.0	0.08792248	0.2792271	0.6283377	1.1949389	0.0	0.0
10.046546445926651	823.0	851.0	0.07669184	0.2792271	0.6283377	1.1949389	0.0	0.0
10.065158737939782	823.0	850.0	0.075715266	0.2792271	0.6283377	1.1949389	0.0	0.0
10.081882269936614	823.0	849.0	0.08108644	0.2792271	0.6283377	1.1949389	0.0	0.0
10.09663714200724	823.0	849.0	0.08255131	0.2792271	0.6283377	1.1949389	0.0	0.0
10.115764623973519	822.0	848.0	0.08206302	0.2792271	0.6283377	1.1949389	0.0	0.0
10.132438945001923	822.0	847.0	0.08157473	0.2792271	0.6283377	1.1949389	0.0	0.0
10.146748678991571	821.0	846.0	0.08206302	0.2792271	0.6283377	1.1949389	0.0	0.0
10.165779047994874	821.0	845.0	0.0830396	0.24431947	0.6283377	1.2402657	0.0	0.0
10.182229027966969	820.0	845.0	0.084016174	0.24431947	0.6632454	1.261932	0.0	0.0
10.197520248009823	820.0	844.0	0.08450446	0.24431947	0.6632454	1.261932	0.0	0.0
10.213071736972779	820.0	844.0	0.08450446	0.24431947	0.6632454	1.261932	0.0	0.0
10.231421570992097	820.0	844.0	0.08499275	0.24431947	0.6632454	1.261932	0.0	0.0
10.247567910933867	820.0	844.0	0.08596933	0.24431947	0.6632454	1.261932	0.0	0.0
10.263983528013341	820.0	844.0	0.08889906	0.24431947	0.6632454	1.261932	0.0	0.0
10.282807172974572	820.0	844.0	0.08889906	0.24431947	0.6632454	1.261932	0.0	0.0
10.29755648097489	820.0	844.0	0.08889906	0.2792271	0.6632454	1.2190871	0.0	0.0
10.313767587998882	820.0	844.0	0.087434195	0.2792271	0.6632454	1.2190871	0.0	0.0
10.332850271952339	820.0	844.0	0.08694591	0.2792271	0.6632454	1.2190871	0.0	0.0
10.347331110970117	820.0	844.0	0.08645762	0.2792271	0.6632454	1.2190871	0.0	0.0
10.363077791989781	820.0	844.0	0.079621576	0.2792271	0.6632454	1.2190871	0.0	0.0
10.382895593997091	820.0	844.0	0.075715266	0.24431947	0.6632454	1.261932	0.0	0.0
10.396791980951093	820.0	843.0	0.076203555	0.24431947	0.6632454	1.261932	0.0	0.0
10.416235700016841	820.0	843.0	0.076203555	0.24431947	0.6632454	1.261932	0.0	0.0
10.432390219997615	820.0	842.0	0.072785534	0.24431947	0.6632454	1.261932	0.0	0.0
10.448515578988008	820.0	842.0	0.06692607	0.24431947	0.6632454	1.261932	0.0	0.0
10.466306803980842	820.0	842.0	0.065430686	0.24431947	0.6632454	1.261932	0.0	0.0
10.482914314023219	820.0	842.0	0.0605478	0.24431947	0.6632454	1.261932	0.0	0.0
10.497962586930953	820.0	841.0	0.05664149	0.24431947	0.6632454	1.261932	0.0	0.0
10.51394520397298	819.0	841.0	0.053711757	0.24431947	0.6632454	1.261932	0.0	0.0
10.533016814966686	819.0	841.0	0.04443427	0.24431947	0.6632454	1.261932	0.0	0.0
10.548682680935599	819.0	841.0	0.035156786	0.24431947	0.6632454	1.261932	0.0	0.0
10.563961324980482	819.0	841.0	0.03369192	0.24431947	0.6632454	1.261932	0.0	0.0
10.579856953001581	820.0	841.0	0.036133364	0.24431947	0.6283377	1.2402657	0.0	0.0
10.596865208935924	820.0	841.0	0.040527962	0.24431947	0.6283377	1.2402657	0.0	0.0
10.613543452927843	820.0	841.0	0.04199283	0.24431947	0.6283377	1.2402657	0.0	0.0
10.633055362966843	819.0	841.0	0.04101625	0.24431947	0.6283377	1.2402657	0.0	0.0
10.648538973997347	819.0	840.0	0.04150454	0.24431947	0.6283377	1.2402657	0.0	0.0
10.664233491988853	819.0	840.0	0.04931716	0.24431947	0.6283377	1.2402657	0.0	0.0
10.68128760298714	819.0	840.0	0.05664149	0.24431947	0.6283377	1.2402657	0.0	0.0
10.698074763990007	819.0	840.0	0.057618067	0.24431947	0.6283377	1.2402657	0.0	0.0
10.713625084026717	819.0	840.0	0.061524376	0.24431947	0.6283377	1.2402657	0.0	0.0
10.730136440950446	819.0	840.0	0.075715266	0.24431947	0.6283377	1.2402657	0.0	0.0
10.746875865967013	818.0	840.0	0.08450446	0.24431947	0.6283377	1.2402657	0.0	0.0
10.763542080996558	818.0	840.0	0.09231708	0.24431947	0.6283377	1.2402657	0.0	0.0
10.780260502942838	818.0	839.0	0.09964141	0.24431947	0.6283377	1.2402657	0.0	0.0
10.79956553899683	817.0	839.0	0.10305943	0.24431947	0.6283377	1.2402657	0.0	0.0
10.81330314395018	816.0	838.0	0.10794232	0.24431947	0.6283377	1.2402657	0.0	0.0
10.829607001971453	814.0	837.0	0.11575494	0.24431947	0.6632454	1.261932	0.0	0.0
10.849553692038171	812.0	836.0	0.11966125	0.24431947	0.6632454	1.261932	0.0	0.0
10.864583457936533	807.0	833.0	0.12307927	0.24431947	0.6632454	1.261932	0.0	0.0
10.88278378196992	802.0	831.0	0.12991531	0.24431947	0.6283377	1.2402657	0.0	0.0
10.899588078027591	795.0	827.0	0.13089189	0.24431947	0.6283377	1.2402657	0.0	0.0
10.91455154097639	790.0	824.0	0.13040361	0.24431947	0.6283377	1.2402657	0.0	0.0
10.932875868980773	785.0	821.0	0.12893873	0.2792271	0.6632454	1.2190871	0.0	0.0
10.949679348035716	780.0	817.0	0.12552072	0.2792271	0.6632454	1.2190871	0.0	0.0
10.964589670998976	777.0	815.0	0.10940719	0.2792271	0.6632454	1.2190871	0.0	0.0
10.980266634025611	776.0	813.0	0.043945983	0.2792271	0.6632454	1.2190871	0.0	0.0
Pause
11.631582597037777	769.0	815.0	0.040039673	0.34904242	0.7679683	1.2103986	0.0	0.0
11.649918989976868	770.0	815.0	0.040527962	0.34904242	0.7679683	1.2103986	0.0	0.0
11.66542536194902	770.0	815.0	0.04101625	0.34904242	0.7679683	1.2103986	0.0	0.0
11.681608275976032	770.0	815.0	0.043945983	0.31413478	0.7679683	1.2462701	0.0	0.0
11.696708322037011	770.0	815.0	0.043945983	0.31413478	0.7679683	1.2462701	0.0	0.0
11.713653065962717	769.0	815.0	0.04443427	0.31413478	0.7679683	1.2462701	0.0	0.0
11.731667325017042	769.0	815.0	0.04443427	0.31413478	0.7679683	1.2462701	0.0	0.0
11.747179804020561	768.0	815.0	0.04492256	0.31413478	0.7679683	1.2462701	0.0	0.0
11.76427787495777	768.0	815.0	0.04492256	0.31413478	0.7679683	1.2462701	0.0	0.0
11.780940520926379	767.0	814.0	0.04492256	0.31413478	0.7679683	1.2462701	0.0	0.0
11.79723943094723	766.0	814.0	0.04541085	0.31413478	0.7679683	1.2462701	0.0	0.0
11.814256577985361	766.0	814.0	0.049805447	0.31413478	0.7679683	1.2462701	0.0	0.0
11.83260728395544	766.0	814.0	0.051270314	0.31413478	0.7679683	1.2462701	0.0	0.0
11.847246516030282	766.0	814.0	0.051758602	0.31413478	0.7679683	1.2462701	0.0	0.0
11.864870172925293	766.0	813.0	0.054200046	0.34904242	0.7679683	1.2103986	0.0	0.0
11.881285167997703	767.0	813.0	0.057618067	0.31413478	0.7679683	1.2462701	0.0	0.0
11.896604712936096	767.0	813.0	0.06347753	0.31413478	0.7679683	1.2462701	0.0	0.0
11.914258725009859	767.0	813.0	0.072297245	0.31413478	0.7679683	1.2462701	0.0	0.0
11.931335576926358	767.0	813.0	0.07376211	0.31413478	0.7679683	1.2462701	0.0	0.0
11.94763932400383	767.0	813.0	0.0742504	0.31413478	0.7679683	1.2462701	0.0	0.0
11.964562445995398	767.0	813.0	0.075715266	0.31413478	0.7679683	1.2462701	0.0	0.0
11.981341224978678	767.0	813.0	0.076203555	0.31413478	0.7679683	1.2462701	0.0	0.0
11.99765703396406	766.0	814.0	0.07718013	0.31413478	0.7679683	1.2462701	0.0	0.0
12.014617261942476	765.0	815.0	0.07815671	0.31413478	0.7679683	1.2462701	0.0	0.0
12.031372669967823	763.0	818.0	0.07815671	0.31413478	0.7679683	1.2462701	0.0	0.0
12.04728687403258	762.0	820.0	0.07815671	0.34904242	0.7679683	1.2103986	0.0	0.0
12.064730854006484	760.0	823.0	0.07815671	0.34904242	0.73306066	1.1866897	0.0	0.0
12.081457174033858	756.0	828.0	0.07766842	0.34904242	0.73306066	1.1866897	0.0	0.0
12.09760387102142	752.0	832.0	0.07718013	0.34904242	0.698153	1.1615694	0.0	0.0
12.113458103965968	748.0	835.0	0.07522698	0.34904242	0.698153	1.1615694	0.0	0.0
12.131109390989877	743.0	839.0	0.068879224	0.34904242	0.698153	1.1615694	0.0	0.0
12.147598332958296	733.0	845.0	0.068879224	0.34904242	0.698153	1.1615694	0.0	0.0
12.163539598928764	726.0	848.0	0.068879224	0.34904242	0.698153	1.1615694	0.0	0.0
12.181210612994619	718.0	851.0	0.06936751	0.34904242	0.698153	1.1615694	0.0	0.0
12.197724913945422	703.0	855.0	0.0698558	0.34904242	0.698153	1.1615694	0.0	0.0
12.213442040025257	693.0	856.0	0.07034409	0.38395005	0.698153	1.1221004	0.0	0.0
12.230871738982387	682.0	858.0	0.07180896	0.41885772	0.698153	1.0830089	0.0	0.0
12.247990663978271	666.0	858.0	0.072785534	0.45376536	0.698153	1.0443135	0.0	0.0
12.263668510946445	656.0	858.0	0.072785534	0.488673	0.698153	1.0060296	0.0	0.0
12.281154450029135	646.0	857.0	0.072785534	0.488673	0.698153	1.0060296	0.0	0.0
12.298175850999542	631.0	855.0	0.072785534	0.488673	0.698153	1.0060296	0.0	0.0
12.31459409603849	622.0	853.0	0.072785534	0.5235807	0.698153	0.96816903	0.0	0.0
12.329953378997743	611.0	850.0	0.072297245	0.5235807	0.698153	0.96816903	0.0	0.0
12.347593368962407	604.0	848.0	0.07180896	0.5584883	0.698153	0.930741	0.0	0.0
12.364635527017526	598.0	846.0	0.072785534	0.5584883	0.698153	0.930741	0.0	0.0
12.382310852990486	590.0	843.0	0.07522698	0.59339595	0.698153	0.89375144	0.0	0.0
12.398643263964914	586.0	841.0	0.076203555	0.59339595	0.698153	0.89375144	0.0	0.0
12.414394874940626	582.0	840.0	0.07766842	0.6283036	0.698153	0.85720366	0.0	0.0
12.431087856995873	580.0	839.0	0.07766842	0.6283036	0.6632454	0.82172465	0.0	0.0
12.447977853938937	578.0	838.0	0.07669184	0.6283036	0.6632454	0.82172465	0.0	0.0
12.463775595999323	577.0	837.0	0.075715266	0.6283036	0.6632454	0.82172465	0.0	0.0
12.48148338298779	577.0	837.0	0.072297245	0.6283036	0.6632454	0.82172465	0.0	0.0
12.498476631939411	577.0	837.0	0.06936751	0.6283036	0.6632454	0.82172465	0.0	0.0
12.51502366794739	577.0	837.0	0.065918975	0.6283036	0.6632454	0.82172465	0.0	0.0
12.53158811002504	577.0	837.0	0.06298924	0.6283036	0.6632454	0.82172465	0.0	0.0
12.548536067013629	578.0	838.0	0.0605478	0.6283036	0.6632454	0.82172465	0.0	0.0
12.563868489000015	578.0	839.0	0.051270314	0.6283036	0.6632454	0.82172465	0.0	0.0
12.58034556102939	578.0	840.0	0.03369192	0.6283036	0.6632454	0.82172465	0.0	0.0
12.598030052962713	577.0	841.0	0.023437858	0.6283036	0.6283377	0.785434	0.0	0.0
12.613751327968203	577.0	841.0	0.020019837	0.6283036	0.6283377	0.785434	0.0	0.0
12.631289112032391	577.0	841.0	0.018066682	0.6283036	0.6283377	0.785434	0.0	0.0
12.648615206009708	576.0	841.0	0.011718929	0.6283036	0.6283377	0.785434	0.0	0.0
12.66465203394182	576.0	841.0	0.003418021	0.6283036	0.6283377	0.785434	0.0	0.0
Pause
Pause
13.130633814027533	578.0	844.0	0.025391012	0.6632113	0.6632454	0.7854333	0.0	0.0
13.14766942593269	578.0	844.0	0.03808652	0.6632113	0.698153	0.821098	0.0	0.0
13.165309526026249	578.0	844.0	0.03808652	0.6632113	0.698153	0.821098	0.0	0.0
13.18105073494371	578.0	843.0	0.036133364	0.6632113	0.698153	0.821098	0.0	0.0
13.198704291018657	578.0	842.0	0.036621653	0.6632113	0.698153	0.821098	0.0	0.0
13.215584799996577	578.0	840.0	0.039063096	0.6632113	0.698153	0.821098	0.0	0.0
13.23104213597253	578.0	840.0	0.040527962	0.6632113	0.698153	0.821098	0.0	0.0
13.250253204023466	578.0	839.0	0.047364004	0.6632113	0.6632454	0.7854333	0.0	0.0
13.26514337293338	577.0	839.0	0.054200046	0.6632113	0.6632454	0.7854333	0.0	0.0
13.28166556393262	576.0	840.0	0.05664149	0.6632113	0.6632454	0.7854333	0.0	0.0
13.299700013012625	575.0	841.0	0.06005951	0.6632113	0.6632454	0.7854333	0.0	0.0
13.315817971946672	572.0	847.0	0.06396582	0.6632113	0.6632454	0.7854333	0.0	0.0
13.331686749937944	569.0	852.0	0.07034409	0.6981189	0.6632454	0.7497679	0.0	0.0
13.348316050018184	566.0	859.0	0.07473869	0.6981189	0.6283377	0.71366245	0.0	0.0
13.365934608038515	561.0	870.0	0.07522698	0.6981189	0.59343004	0.6771146	0.0	0.0
13.381666047032923	558.0	877.0	0.075715266	0.6981189	0.59343004	0.6771146	0.0	0.0
13.399245843989775	556.0	882.0	0.072785534	0.6981189	0.59343004	0.6771146	0.0	0.0
13.41618043393828	555.0	888.0	0.065918975	0.6981189	0.59343004	0.6771146	0.0	0.0
13.431680836016312	554.0	889.0	0.04931716	0.73302656	0.59343004	0.64296615	0.0	0.0
13.447133239009418	555.0	890.0	3.0518044E-5	0.73302656	0.59343004	0.64296615	0.0	0.0
Pause
13.663244124036282	578.0	826.0	0.026855879	0.6981189	0.6632454	0.7497679	0.0	0.0
13.682700359961018	577.0	825.0	0.030762188	0.6632113	0.6632454	0.7854333	0.0	0.0
13.697247665026225	577.0	824.0	0.032715343	0.6632113	0.6632454	0.7854333	0.0	0.0
13.71587345993612	577.0	823.0	0.036621653	0.6632113	0.6632454	0.7854333	0.0	0.0
13.732688404037617	576.0	822.0	0.039551385	0.6632113	0.6632454	0.7854333	0.0	0.0
13.74949137493968	576.0	822.0	0.04101625	0.6632113	0.6632454	0.7854333	0.0	0.0
13.766186080989428	575.0	822.0	0.043457694	0.6632113	0.6632454	0.7854333	0.0	0.0
13.782702264026739	575.0	821.0	0.04492256	0.6632113	0.6632454	0.7854333	0.0	0.0
13.797692633932456	574.0	822.0	0.047852293	0.6981189	0.6632454	0.7497679	0.0	0.0
13.815825367928483	573.0	822.0	0.054688334	0.6981189	0.6632454	0.7497679	0.0	0.0
13.832672468968667	570.0	823.0	0.05957122	0.6981189	0.6632454	0.7497679	0.0	0.0
13.848791233962402	568.0	825.0	0.062012665	0.6981189	0.6632454	0.7497679	0.0	0.0
13.863125785021111	565.0	826.0	0.062012665	0.6981189	0.6632454	0.7497679	0.0	0.0
13.882509161019698	562.0	828.0	0.06250095	0.6981189	0.6632454	0.7497679	0.0	0.0
13.897731769946404	556.0	832.0	0.065430686	0.6981189	0.6283377	0.71366245	0.0	0.0
13.913241758942604	551.0	835.0	0.06741436	0.73302656	0.6283377	0.6789697	0.0	0.0
13.932526543969288	546.0	840.0	0.072297245	0.73302656	0.6283377	0.6789697	0.0	0.0
13.947696689981967	537.0	847.0	0.07376211	0.73302656	0.6283377	0.6789697	0.0	0.0
13.965847410960123	531.0	853.0	0.07766842	0.7679342	0.59343004	0.6097294	0.0	0.0
13.982623456977308	522.0	864.0	0.08059815	0.7679342	0.59343004	0.6097294	0.0	0.0
13.998700890922919	516.0	873.0	0.08157473	0.7679342	0.59343004	0.6097294	0.0	0.0
14.013189036981203	511.0	883.0	0.08206302	0.7679342	0.59343004	0.6097294	0.0	0.0
14.033583606942557	505.0	893.0	0.08206302	0.80284184	0.5585224	0.54296255	0.0	0.0
14.048255790024996	499.0	908.0	0.08206302	0.80284184	0.52361476	0.508638	0.0	0.0
14.065003943978809	495.0	918.0	0.08157473	0.83774954	0.52361476	0.47942215	0.0	0.0
14.082647165982053	489.0	934.0	0.080109864	0.83774954	0.4887071	0.4465269	0.0	0.0
14.098723595961928	486.0	945.0	0.079621576	0.8726572	0.4887071	0.41967267	0.0	0.0
14.113156578037888	482.0	956.0	0.079621576	0.8726572	0.4887071	0.41967267	0.0	0.0
14.132842827006243	479.0	965.0	0.078645	0.9075648	0.4887071	0.3937432	0.0	0.0
14.148672066978179	476.0	976.0	0.076203555	0.9075648	0.4887071	0.3937432	0.0	0.0
14.163696147035807	474.0	982.0	0.072297245	0.9075648	0.45379946	0.36408767	0.0	0.0
14.182731510023586	473.0	987.0	0.0649424	0.8726572	0.45379946	0.38847795	0.0	0.0
14.198758090031333	472.0	991.0	0.058594644	0.8726572	0.45379946	0.38847795	0.0	0.0
14.215307006961666	472.0	992.0	0.017090105	0.8726572	0.45379946	0.38847795	0.0	0.0
Pause
17.73096641502343	584.0	827.0	0.016601816	1.0471954	-0.2792271	-0.16404969	0.0	0.0
17.74717300501652	584.0	829.0	0.016601816	1.0471954	-0.31413478	-0.18542306	0.0	0.0
17.764085612958297	583.0	830.0	0.009765774	1.0471954	-0.31413478	-0.18542306	0.0	0.0
Pause
17.848344553960487	583.0	834.0	0.04541085	1.0471954	-0.38395005	-0.22915362	0.0	0.0
17.86484874493908	583.0	837.0	0.054688334	1.0471954	-0.38395005	-0.22915362	0.0	0.0
17.880538044963032	582.0	838.0	0.05957122	1.0471954	-0.38395005	-0.22915362	0.0	0.0
17.898567772936076	582.0	838.0	0.06298924	1.0471954	-0.38395005	-0.22915362	0.0	0.0
17.914612672990188	582.0	837.0	0.06347753	1.0471954	-0.38395005	-0.22915362	0.0	0.0
17.930458358023316	582.0	835.0	0.06640726	1.0471954	-0.38395005	-0.22915362	0.0	0.0
17.94883544696495	581.0	832.0	0.0698558	1.0471954	-0.38395005	-0.22915362	0.0	0.0
17.96524120203685	581.0	826.0	0.07132067	1.0471954	-0.34904242	-0.20711097	0.0	0.0
