time	x	y	pressure	tiltX	tiltY	azimuth	sidePressure	rotation
6.5652033081278205	237.0	960.0	0.04834058	0.83774954	1.0472295	1.0006648	0.0	0.0
6.621992361033335	303.0	957.0	0.06005951	0.80284184	1.0472295	1.03199	0.0	0.0
6.638936582021415	310.0	957.0	0.062012665	0.80284184	1.0472295	1.03199	0.0	0.0
6.660502981161699	326.0	956.0	0.065430686	0.7679342	1.0472295	1.0622227	0.0	0.0
6.677155754994601	348.0	955.0	0.06741436	0.7679342	1.0472295	1.0622227	0.0	0.0
6.694598244037479	368.0	955.0	0.06936751	0.7679342	1.0472295	1.0622227	0.0	0.0
6.710807034978643	380.0	954.0	0.0698558	0.73302656	1.0472295	1.0914361	0.0	0.0
6.727208198979497	392.0	953.0	0.07034409	0.73302656	1.0472295	1.0914361	0.0	0.0
6.74512616917491	403.0	953.0	0.0698558	0.6981189	1.0472295	1.1197015	0.0	0.0
6.760760911041871	416.0	952.0	0.0698558	0.6981189	1.0472295	1.1197015	0.0	0.0
6.7773130249697715	424.0	951.0	0.06936751	0.6632113	1.0472295	1.1470867	0.0	0.0
6.793930239975452	429.0	950.0	0.068879224	0.6632113	1.0472295	1.1470867	0.0	0.0
6.813191483030096	434.0	949.0	0.068879224	0.6283036	1.0472295	1.173657	0.0	0.0
6.8275611461140215	435.0	948.0	0.068390936	0.6283036	1.0472295	1.173657	0.0	0.0
6.84450936014764	436.0	948.0	0.06790265	0.59339595	1.0472295	1.1994737	0.0	0.0
6.862594814039767	433.0	948.0	0.068879224	0.59339595	1.0472295	1.1994737	0.0	0.0
6.877071666996926	430.0	948.0	0.068879224	0.59339595	1.0472295	1.1994737	0.0	0.0
6.893715671962127	426.0	950.0	0.06936751	0.59339595	1.0472295	1.1994737	0.0	0.0
6.911598776001483	420.0	951.0	0.06936751	0.59339595	1.0472295	1.1994737	0.0	0.0
6.928677964024246	409.0	954.0	0.0698558	0.6283036	1.0472295	1.173657	0.0	0.0
6.946375210070983	400.0	956.0	0.06936751	0.6283036	1.0472295	1.173657	0.0	0.0
6.962145881028846	385.0	959.0	0.068879224	0.6632113	1.0472295	1.1470867	0.0	0.0
6.977709318045527	374.0	961.0	0.06790265	0.6632113	1.0472295	1.1470867	0.0	0.0
6.996116693131626	363.0	963.0	0.057618067	0.6981189	1.0472295	1.1197015	0.0	0.0
7.011880971956998	346.0	965.0	0.050782025	0.73302656	1.0472295	1.0914361	0.0	0.0
7.028725597076118	334.0	966.0	0.050293736	0.73302656	1.0472295	1.0914361	0.0	0.0
7.046394092030823	322.0	966.0	0.050782025	0.7679342	1.0472295	1.0622227	0.0	0.0
7.0635538280475885	305.0	967.0	0.050293736	0.7679342	1.0472295	1.0622227	0.0	0.0
7.077223393134773	293.0	968.0	0.043945983	0.7679342	1.0472295	1.0622227	0.0	0.0
7.094022345962003	282.0	969.0	0.012695506	0.80284184	1.0472295	1.03199	0.0	0.0
Pause
7.295321365119889	327.0	961.0	0.013183795	0.80284184	1.0472295	1.03199	0.0	0.0
7.311774221947417	349.0	957.0	0.017578393	0.80284184	1.0472295	1.03199	0.0	0.0
7.327901168959215	363.0	954.0	0.016601816	0.80284184	1.0472295	1.03199	0.0	0.0
7.3442734610289335	378.0	952.0	0.008789197	0.80284184	1.0472295	1.03199	0.0	0.0
7.360916655045003	393.0	949.0	0.0053711757	0.7679342	1.0472295	1.0622227	0.0	0.0
7.378033151151612	414.0	945.0	0.0053711757	0.7679342	1.0472295	1.0622227	0.0	0.0
7.394260525004938	428.0	943.0	0.007812619	0.73302656	1.0472295	1.0914361	0.0	0.0
7.410290783038363	441.0	941.0	0.020996414	0.6981189	1.0472295	1.1197015	0.0	0.0
7.427255809074268	458.0	938.0	0.0302739	0.6981189	1.0472295	1.1197015	0.0	0.0
7.444614361040294	467.0	935.0	0.038574807	0.6981189	1.0472295	1.1197015	0.0	0.0
7.4637690600939095	475.0	933.0	0.043945983	0.6981189	1.0472295	1.1197015	0.0	0.0
7.4773104910273105	483.0	930.0	0.04834058	0.6981189	1.0472295	1.1197015	0.0	0.0
7.495361040113494	486.0	929.0	0.054200046	0.6981189	1.0472295	1.1197015	0.0	0.0
7.511080797063187	487.0	927.0	0.06005951	0.6981189	1.0472295	1.1197015	0.0	0.0
7.528131511062384	488.0	926.0	0.06005951	0.6981189	1.0472295	1.1197015	0.0	0.0
7.544791310094297	488.0	925.0	0.05957122	0.6981189	1.0472295	1.1197015	0.0	0.0
7.560890203109011	488.0	925.0	0.058106355	0.6981189	1.0472295	1.1197015	0.0	0.0
7.578174497000873	488.0	924.0	0.0561532	0.6981189	1.0472295	1.1197015	0.0	0.0
7.594700627028942	488.0	924.0	0.054200046	0.6981189	1.0472295	1.1197015	0.0	0.0
7.611168184084818	488.0	925.0	0.054200046	0.6981189	1.0472295	1.1197015	0.0	0.0
7.6288396620657295	486.0	927.0	0.055176623	0.6981189	1.0472295	1.1197015	0.0	0.0
7.644683785038069	484.0	930.0	0.054200046	0.6981189	1.0472295	1.1197015	0.0	0.0
7.662051174091175	481.0	933.0	0.03808652	0.6981189	1.0472295	1.1197015	0.0	0.0
7.678260755958036	477.0	936.0	0.036621653	0.6981189	1.0472295	1.1197015	0.0	0.0
7.695188101148233	476.0	936.0	0.04150454	0.6981189	1.0472295	1.1197015	0.0	0.0
7.712019371101633	477.0	935.0	0.04199283	0.6981189	1.0472295	1.1197015	0.0	0.0
7.727096874034032	479.0	933.0	0.04150454	0.6981189	1.0472295	1.1197015	0.0	0.0
7.744013017974794	483.0	929.0	0.04150454	0.6981189	1.0472295	1.1197015	0.0	0.0
7.76065935799852	485.0	927.0	0.043945983	0.6981189	1.0472295	1.1197015	0.0	0.0
7.77742856903933	486.0	926.0	0.051758602	0.6981189	1.0472295	1.1197015	0.0	0.0
7.7946316241286695	486.0	927.0	0.05322347	0.6981189	1.0472295	1.1197015	0.0	0.0
7.810773380100727	484.0	928.0	0.051758602	0.6981189	1.0472295	1.1197015	0.0	0.0
7.827790359966457	482.0	929.0	0.031250477	0.6981189	1.0472295	1.1197015	0.0	0.0
7.843544799135998	479.0	930.0	0.007812619	0.6981189	1.0472295	1.1197015	0.0	0.0
Pause
9.946327914949507	282.0	734.0	0.039551385	1.0471954	0.59343004	0.37137407	0.0	0.0
9.960368806961924	280.0	734.0	0.04541085	1.0471954	0.59343004	0.37137407	0.0	0.0
9.977344386978075	277.0	733.0	0.050293736	1.0471954	0.59343004	0.37137407	0.0	0.0
9.996357791125774	274.0	733.0	0.051270314	1.0471954	0.59343004	0.37137407	0.0	0.0
10.010636917082593	268.0	732.0	0.051758602	1.0471954	0.5585224	0.3462494	0.0	0.0
10.029125096043572	263.0	732.0	0.054688334	1.0471954	0.5585224	0.3462494	0.0	0.0
10.043532827170566	254.0	732.0	0.057618067	1.0471954	0.5585224	0.3462494	0.0	0.0
10.06224203412421	247.0	733.0	0.05957122	1.0471954	0.5585224	0.3462494	0.0	0.0
10.079180259024724	241.0	735.0	0.06298924	1.0471954	0.52361476	0.3217631	0.0	0.0
10.094768217066303	231.0	739.0	0.065918975	1.0471954	0.52361476	0.3217631	0.0	0.0
10.112269309116527	224.0	744.0	0.068390936	1.0471954	0.4887071	0.2978619	0.0	0.0
10.12925461307168	218.0	751.0	0.068879224	1.0471954	0.45379946	0.2744953	0.0	0.0
10.145897007081658	210.0	765.0	0.0698558	1.0471954	0.45379946	0.2744953	0.0	0.0
10.161981245037168	206.0	777.0	0.07083238	1.0471954	0.4188918	0.25161505	0.0	0.0
10.177714611170813	203.0	790.0	0.072297245	1.0471954	0.3490765	0.20713232	0.0	0.0
10.195951696950942	201.0	803.0	0.072785534	1.0471954	0.31416884	0.18544407	0.0	0.0
10.211379986954853	198.0	824.0	0.072785534	1.0471954	0.24435355	0.14297265	0.0	0.0
10.229174689156935	196.0	840.0	0.072785534	1.0471954	0.17453825	0.101456545	0.0	0.0
10.24538624798879	192.0	866.0	0.072297245	1.0471954	0.1396306	0.0809668	0.0	0.0
10.262613401049748	189.0	883.0	0.072297245	1.0471954	0.0698153	0.040351782	0.0	0.0
10.277366263093427	186.0	900.0	0.068879224	1.0471954	-0.0	0.0	0.0	0.0
10.296572051011026	184.0	915.0	0.057618067	1.0471954	-0.0	0.0	0.0	0.0
10.311321248998865	182.0	935.0	0.043945983	1.0471954	-0.03487356	-0.0201398	0.0	0.0
10.329330065054819	180.0	946.0	0.022949569	1.0471954	-0.069781214	-0.040332038	0.0	0.0
10.344432706944644	177.0	958.0	0.007812619	1.0471954	-0.069781214	-0.040332038	0.0	0.0
10.362764863064513	175.0	964.0	0.0043945983	1.0471954	-0.069781214	-0.040332038	0.0	0.0
10.377669082954526	173.0	967.0	3.0518044E-5	1.0471954	-0.10468886	-0.060589965	0.0	0.0
Pause
11.747453053947538	276.0	737.0	0.0302739	1.0471954	0.59343004	0.37137407	0.0	0.0
11.762605410069227	281.0	737.0	0.035645075	1.0471954	0.5585224	0.3462494	0.0	0.0
11.777819589944556	285.0	738.0	0.043457694	1.0471954	0.5585224	0.3462494	0.0	0.0
11.795435243053362	290.0	740.0	0.04931716	1.0471954	0.5585224	0.3462494	0.0	0.0
11.812040079152212	298.0	744.0	0.05273518	1.0471954	0.5585224	0.3462494	0.0	0.0
11.828435654053465	306.0	747.0	0.055176623	1.0471954	0.5585224	0.3462494	0.0	0.0
11.846180055988953	314.0	751.0	0.059082933	1.0471954	0.52361476	0.3217631	0.0	0.0
11.862849103054032	328.0	757.0	0.0649424	1.0471954	0.52361476	0.3217631	0.0	0.0
11.87846896611154	339.0	761.0	0.07083238	1.0471954	0.52361476	0.3217631	0.0	0.0
11.896194348111749	351.0	764.0	0.0830396	1.0471954	0.4887071	0.2978619	0.0	0.0
11.911446223966777	371.0	767.0	0.08792248	1.0471954	0.4887071	0.2978619	0.0	0.0
11.928140013013035	384.0	767.0	0.09036393	1.0471954	0.4887071	0.2978619	0.0	0.0
11.947322291089222	398.0	767.0	0.09768826	1.0471954	0.4887071	0.2978619	0.0	0.0
11.96223700302653	417.0	763.0	0.10159457	1.0471954	0.4887071	0.2978619	0.0	0.0
11.978478776058182	428.0	759.0	0.102571145	1.0471954	0.4887071	0.2978619	0.0	0.0
11.995816373033449	438.0	754.0	0.10305943	1.0471954	0.4887071	0.2978619	0.0	0.0
12.012603536946699	450.0	746.0	0.10305943	1.0471954	0.4887071	0.2978619	0.0	0.0
12.027892376063392	455.0	742.0	0.10305943	1.0471954	0.4887071	0.2978619	0.0	0.0
12.044732013950124	460.0	739.0	0.09719997	1.0471954	0.4887071	0.2978619	0.0	0.0
12.063017348991707	462.0	737.0	0.07327382	1.0471954	0.4887071	0.2978619	0.0	0.0
12.079452601028606	464.0	736.0	0.02978561	1.0471954	0.4887071	0.2978619	0.0	0.0
Pause
13.628603713121265	473.0	748.0	0.045899138	1.0471954	-0.34904242	-0.20711097	0.0	0.0
13.645012928172946	476.0	753.0	0.050782025	1.0471954	-0.38395005	-0.22915362	0.0	0.0
13.661187025951222	479.0	761.0	0.057129778	1.0471954	-0.38395005	-0.22915362	0.0	0.0
13.678256049985066	482.0	770.0	0.068879224	1.0471954	-0.41885772	-0.25159296	0.0	0.0
13.694857125170529	488.0	787.0	0.07766842	1.0471954	-0.45376536	-0.2744727	0.0	0.0
13.71126475604251	492.0	800.0	0.08499275	1.0471954	-0.488673	-0.29783884	0.0	0.0
13.730622448958457	496.0	815.0	0.08987564	1.0471954	-0.5235807	-0.32173946	0.0	0.0
13.74423451605253	503.0	838.0	0.09036393	1.0471954	-0.5584883	-0.34622517	0.0	0.0
13.76152506400831	507.0	853.0	0.087434195	1.0471954	-0.6283036	-0.3971675	0.0	0.0
13.777779839001596	511.0	866.0	0.07376211	1.0471954	-0.6283036	-0.3971675	0.0	0.0
13.795543179148808	514.0	882.0	0.049805447	1.0471954	-0.6632113	-0.42373908	0.0	0.0
Pause
18.76252873102203	246.0	720.0	0.042481117	1.0471954	0.45379946	0.2744953	0.0	0.0
18.778276039054617	246.0	720.0	0.05664149	1.0471954	0.45379946	0.2744953	0.0	0.0
18.795889787143096	245.0	719.0	0.06445411	1.0471954	0.45379946	0.2744953	0.0	0.0
18.812334927963093	245.0	720.0	0.06741436	1.0471954	0.45379946	0.2744953	0.0	0.0
18.82821588497609	245.0	722.0	0.072297245	1.0471954	0.45379946	0.2744953	0.0	0.0
18.845911601092666	246.0	726.0	0.07132067	1.0471954	0.4188918	0.25161505	0.0	0.0
Pause
20.597368160961196	244.0	721.0	0.027832456	1.0471954	-0.03487356	-0.0201398	0.0	0.0
20.612866074079648	243.0	722.0	0.02636759	1.0471954	-0.03487356	-0.0201398	0.0	0.0
20.627663566032425	243.0	722.0	0.01904326	1.0471954	-0.03487356	-0.0201398	0.0	0.0
20.644196943147108	242.0	722.0	0.0019531548	1.0471954	-0.0	0.0	0.0	0.0
Pause
22.545980748021975	243.0	716.0	0.04541085	1.0471954	0.2792612	0.16407043	0.0	0.0
22.562441427027807	243.0	716.0	0.055176623	1.0471954	0.31416884	0.18544407	0.0	0.0
22.57795297098346	243.0	716.0	0.06347753	1.0471954	0.31416884	0.18544407	0.0	0.0
22.59567630314268	243.0	717.0	0.068390936	1.0471954	0.31416884	0.18544407	0.0	0.0
22.61397234397009	243.0	719.0	0.06936751	1.0471954	0.31416884	0.18544407	0.0	0.0
22.627945265965536	243.0	722.0	0.07034409	1.0471954	0.31416884	0.18544407	0.0	0.0
22.644425820093602	242.0	725.0	0.06936751	1.0471954	0.2792612	0.16407043	0.0	0.0
22.66221006703563	241.0	731.0	0.06790265	1.0471954	0.24435355	0.14297265	0.0	0.0
22.678084342041984	240.0	735.0	0.0561532	1.0471954	0.2094459	0.12211342	0.0	0.0
Pause
24.727381291100755	292.0	660.0	0.05322347	1.0471954	0.2792612	0.16407043	0.0	0.0
24.746065648971125	290.0	663.0	0.061524376	1.0471954	0.24435355	0.14297265	0.0	0.0
24.763628449989483	286.0	671.0	0.0698558	1.0471954	0.24435355	0.14297265	0.0	0.0
24.77829777309671	284.0	678.0	0.07473869	1.0471954	0.2094459	0.12211342	0.0	0.0
24.79752236814238	282.0	687.0	0.08059815	1.0471954	0.2094459	0.12211342	0.0	0.0
24.81318327295594	282.0	701.0	0.08450446	1.0471954	0.17453825	0.101456545	0.0	0.0
24.828525010030717	283.0	710.0	0.08694591	1.0471954	0.1396306	0.0809668	0.0	0.0
24.845304682152346	285.0	717.0	0.08841077	1.0471954	0.10472295	0.06060979	0.0	0.0
24.862084149150178	291.0	722.0	0.08841077	1.0471954	0.0698153	0.040351782	0.0	0.0
24.877625086111948	297.0	722.0	0.08792248	1.0471954	0.03490765	0.020159498	0.0	0.0
24.897318589966744	303.0	720.0	0.08987564	1.0471954	-0.0	0.0	0.0	0.0
24.911592541029677	312.0	710.0	0.090852216	1.0471954	-0.0	0.0	0.0	0.0
24.929698162013665	318.0	701.0	0.091340505	1.0471954	-0.0	0.0	0.0	0.0
24.944818377960473	323.0	691.0	0.090852216	1.0471954	-0.0	0.0	0.0	0.0
24.962683892110363	327.0	675.0	0.090852216	1.0471954	0.03490765	0.020159498	0.0	0.0
24.9780818419531	327.0	666.0	0.09036393	1.0471954	0.0698153	0.040351782	0.0	0.0
24.997339093126357	326.0	659.0	0.09036393	1.0471954	0.1396306	0.0809668	0.0	0.0
25.013827128103003	322.0	652.0	0.091340505	1.0471954	0.17453825	0.101456545	0.0	0.0
25.02908056997694	317.0	651.0	0.09231708	1.0471954	0.2094459	0.12211342	0.0	0.0
25.044621295062825	313.0	652.0	0.09280537	1.0471954	0.24435355	0.14297265	0.0	0.0
25.061024473048747	308.0	653.0	0.09280537	1.0471954	0.24435355	0.14297265	0.0	0.0
25.079078196082264	302.0	657.0	0.09280537	1.0471954	0.2792612	0.16407043	0.0	0.0
25.095144719118252	299.0	659.0	0.09280537	1.0471954	0.2792612	0.16407043	0.0	0.0
25.114112379029393	297.0	661.0	0.09329366	1.0471954	0.2792612	0.16407043	0.0	0.0
25.129649413051084	296.0	663.0	0.09329366	1.0471954	0.2792612	0.16407043	0.0	0.0
25.14409685297869	295.0	663.0	0.09280537	1.0471954	0.24435355	0.14297265	0.0	0.0
25.163201485062018	296.0	664.0	0.09182879	1.0471954	0.24435355	0.14297265	0.0	0.0
25.179584986064583	297.0	664.0	0.09182879	1.0471954	0.24435355	0.14297265	0.0	0.0
25.197286640061066	297.0	663.0	0.091340505	1.0471954	0.24435355	0.14297265	0.0	0.0
25.21160875610076	297.0	663.0	0.090852216	1.0471954	0.24435355	0.14297265	0.0	0.0
25.2290160281118	297.0	663.0	0.091340505	1.0471954	0.24435355	0.14297265	0.0	0.0
25.244294892065227	297.0	663.0	0.091340505	1.0471954	0.24435355	0.14297265	0.0	0.0
25.26305569615215	297.0	663.0	0.087434195	1.0471954	0.2094459	0.12211342	0.0	0.0
25.27816541097127	297.0	663.0	0.06640726	1.0471954	0.2094459	0.12211342	0.0	0.0
Pause
30.06224892195314	329.0	643.0	0.040527962	1.0471954	0.5585224	0.3462494	0.0	0.0
30.080290690995753	328.0	640.0	0.04443427	1.0471954	0.5585224	0.3462494	0.0	0.0
30.09635218908079	327.0	637.0	0.04882887	1.0471954	0.5585224	0.3462494	0.0	0.0
30.110984167084098	325.0	634.0	0.05224689	1.0471954	0.5585224	0.3462494	0.0	0.0
30.1297217651736	324.0	630.0	0.0605478	1.0471954	0.5585224	0.3462494	0.0	0.0
30.146333392011	321.0	624.0	0.065918975	1.0471954	0.5585224	0.3462494	0.0	0.0
30.16126973903738	318.0	620.0	0.068879224	1.0471954	0.5585224	0.3462494	0.0	0.0
30.180334927979857	314.0	616.0	0.07083238	1.0471954	0.59343004	0.37137407	0.0	0.0
30.196321374969557	307.0	612.0	0.072297245	1.0471954	0.59343004	0.37137407	0.0	0.0
30.211729243164882	302.0	610.0	0.07766842	1.0471954	0.59343004	0.37137407	0.0	0.0
30.230280905030668	296.0	609.0	0.09036393	1.0471954	0.6283377	0.39719307	0.0	0.0
30.245411415118724	287.0	609.0	0.09427024	1.0471954	0.6283377	0.39719307	0.0	0.0
30.261349209118634	281.0	610.0	0.098664835	1.0471954	0.59343004	0.37137407	0.0	0.0
30.280495923012495	275.0	613.0	0.10110628	1.0471954	0.59343004	0.37137407	0.0	0.0
30.296319863991812	266.0	620.0	0.102082856	1.0471954	0.59343004	0.37137407	0.0	0.0
30.311282441951334	260.0	627.0	0.102571145	1.0471954	0.5585224	0.3462494	0.0	0.0
30.32985983695835	255.0	634.0	0.10550088	1.0471954	0.52361476	0.3217631	0.0	0.0
30.344831705093384	247.0	648.0	0.1089189	1.0471954	0.52361476	0.3217631	0.0	0.0
30.3620107290335	243.0	658.0	0.11233692	1.0471954	0.4887071	0.2978619	0.0	0.0
30.379914480028674	240.0	670.0	0.11575494	1.0471954	0.45379946	0.2744953	0.0	0.0
30.396593525074422	236.0	687.0	0.117219806	1.0471954	0.4188918	0.25161505	0.0	0.0
30.411336480174214	235.0	698.0	0.11819638	1.0471954	0.38398415	0.22917534	0.0	0.0
30.42996020312421	235.0	708.0	0.117708094	1.0471954	0.3490765	0.20713232	0.0	0.0
30.446822309168056	239.0	721.0	0.10501259	1.0471954	0.31416884	0.18544407	0.0	0.0
30.46165754715912	243.0	728.0	0.06445411	1.0471954	0.2792612	0.16407043	0.0	0.0
Pause
31.761826537083834	236.0	679.0	0.023437858	1.0471954	0.4188918	0.25161505	0.0	0.0
31.781115568010136	236.0	680.0	0.024902724	1.0471954	0.38398415	0.22917534	0.0	0.0
31.796393014956266	236.0	682.0	0.025391012	1.0471954	0.38398415	0.22917534	0.0	0.0
31.810987978009507	236.0	684.0	0.028320745	1.0471954	0.38398415	0.22917534	0.0	0.0
31.8311560950242	236.0	686.0	0.03320363	1.0471954	0.38398415	0.22917534	0.0	0.0
31.844411994097754	237.0	690.0	0.034668498	1.0471954	0.3490765	0.20713232	0.0	0.0
31.861747364047915	238.0	693.0	0.036621653	1.0471954	0.3490765	0.20713232	0.0	0.0
31.880897262133658	239.0	697.0	0.042481117	1.0471954	0.3490765	0.20713232	0.0	0.0
31.89447333617136	241.0	702.0	0.04931716	1.0471954	0.31416884	0.18544407	0.0	0.0
31.911738893017173	242.0	706.0	0.054200046	1.0471954	0.31416884	0.18544407	0.0	0.0
31.9312420419883	244.0	709.0	0.057618067	1.0471954	0.2792612	0.16407043	0.0	0.0
31.9464114010334	249.0	714.0	0.062012665	1.0471954	0.2792612	0.16407043	0.0	0.0
31.961122659035027	252.0	717.0	0.06445411	1.0471954	0.2792612	0.16407043	0.0	0.0
31.98042200296186	257.0	719.0	0.06790265	1.0471954	0.2792612	0.16407043	0.0	0.0
31.996402807999402	265.0	722.0	0.07132067	1.0471954	0.24435355	0.14297265	0.0	0.0
32.010913943173364	270.0	723.0	0.07376211	1.0471954	0.24435355	0.14297265	0.0	0.0
32.0284193539992	275.0	724.0	0.075715266	1.0471954	0.2792612	0.16407043	0.0	0.0
32.047403814969584	283.0	725.0	0.076203555	1.0471954	0.2792612	0.16407043	0.0	0.0
32.06138224899769	287.0	725.0	0.075715266	1.0471954	0.2792612	0.16407043	0.0	0.0
Pause
33.711714891018346	260.0	622.0	0.016113527	1.0471954	0.24435355	0.14297265	0.0	0.0
33.728653100086376	260.0	622.0	0.023926146	1.0471954	0.2094459	0.12211342	0.0	0.0
33.74503969796933	260.0	622.0	0.028320745	1.0471954	0.2094459	0.12211342	0.0	0.0
33.76149994204752	260.0	622.0	0.0302739	1.0471954	0.2094459	0.12211342	0.0	0.0
33.78081461810507	260.0	622.0	0.035645075	1.0471954	0.2094459	0.12211342	0.0	0.0
33.7965041550342	260.0	621.0	0.045899138	1.0471954	0.2094459	0.12211342	0.0	0.0
33.81190274213441	261.0	618.0	0.053711757	1.0471954	0.2094459	0.12211342	0.0	0.0
33.83050631615333	262.0	615.0	0.06298924	1.0471954	0.2094459	0.12211342	0.0	0.0
33.84749019402079	265.0	607.0	0.068390936	1.0471954	0.2094459	0.12211342	0.0	0.0
33.86101789609529	268.0	601.0	0.07522698	1.0471954	0.24435355	0.14297265	0.0	0.0
33.87850035796873	272.0	594.0	0.08987564	1.0471954	0.2792612	0.16407043	0.0	0.0
33.89749052398838	280.0	584.0	0.0957351	1.0471954	0.31416884	0.18544407	0.0	0.0
33.911875310121104	286.0	578.0	0.09817655	1.0471954	0.3490765	0.20713232	0.0	0.0
33.931251863949	292.0	575.0	0.09768826	1.0471954	0.38398415	0.22917534	0.0	0.0
33.94650482409634	301.0	574.0	0.080109864	1.0471954	0.4188918	0.25161505	0.0	0.0
Pause
35.76618019398302	268.0	601.0	0.036621653	1.0471954	-0.2792271	-0.16404969	0.0	0.0
35.77989038801752	270.0	600.0	0.043945983	1.0471954	-0.2792271	-0.16404969	0.0	0.0
35.794492793036625	272.0	598.0	0.053711757	1.0471954	-0.2792271	-0.16404969	0.0	0.0
35.81202338705771	275.0	595.0	0.0605478	1.0471954	-0.2792271	-0.16404969	0.0	0.0
35.83059766306542	279.0	590.0	0.06445411	1.0471954	-0.2792271	-0.16404969	0.0	0.0
35.845037257066	283.0	587.0	0.07132067	1.0471954	-0.24431947	-0.14295217	0.0	0.0
35.862047536997125	286.0	584.0	0.08108644	1.0471954	-0.24431947	-0.14295217	0.0	0.0
35.87807475705631	293.0	581.0	0.08596933	1.0471954	-0.20941181	-0.12209316	0.0	0.0
35.89473492396064	298.0	580.0	0.090852216	1.0471954	-0.20941181	-0.12209316	0.0	0.0
35.911955601070076	303.0	580.0	0.098664835	1.0471954	-0.20941181	-0.12209316	0.0	0.0
35.9312278770376	311.0	582.0	0.10501259	1.0471954	-0.20941181	-0.12209316	0.0	0.0
