time	x	y	pressure	tiltX	tiltY	azimuth	sidePressure	rotation
53.837179416790605	326.0	525.0	0.08157473	0.94247246	0.94250655	0.785434	0.0	0.0
53.89478104468435	319.0	525.0	0.11282521	0.8726572	0.8726913	0.78543276	0.0	0.0
53.9133882378228	318.0	526.0	0.12259098	0.8726572	0.8726913	0.78543276	0.0	0.0
53.92909152479842	315.0	526.0	0.12845045	0.8726572	0.8726913	0.78543276	0.0	0.0
53.94666782580316	312.0	527.0	0.13678187	0.8726572	0.9075989	0.8210982	0.0	0.0
53.96341439569369	308.0	527.0	0.14117648	0.8726572	0.9075989	0.8210982	0.0	0.0
53.98010002775118	306.0	528.0	0.14654765	0.9075648	0.9075989	0.7854333	0.0	0.0
53.99578368104994	303.0	529.0	0.15045395	0.9075648	0.9075989	0.7854333	0.0	0.0
54.013450637925416	301.0	529.0	0.15191883	0.94247246	0.9075989	0.7491422	0.0	0.0
54.02933412371203	297.0	531.0	0.15338369	0.94247246	0.9075989	0.7491422	0.0	0.0
54.04551040288061	295.0	532.0	0.15826657	0.94247246	0.9075989	0.7491422	0.0	0.0
54.063511529006064	293.0	533.0	0.15973145	0.94247246	0.9075989	0.7491422	0.0	0.0
54.08018630091101	290.0	535.0	0.1611963	0.94247246	0.8726913	0.713662	0.0	0.0
54.09588991990313	288.0	536.0	0.1616846	0.94247246	0.8726913	0.713662	0.0	0.0
54.113292165100574	286.0	538.0	0.16266118	0.9075648	0.8726913	0.74976766	0.0	0.0
54.1302331648767	283.0	540.0	0.16461433	0.9075648	0.8726913	0.74976766	0.0	0.0
54.145876659080386	280.0	542.0	0.16754407	0.9075648	0.8377836	0.71471566	0.0	0.0
54.16357255587354	278.0	544.0	0.17145038	0.94247246	0.8377836	0.6789691	0.0	0.0
54.17987368768081	274.0	547.0	0.17193866	0.94247246	0.80287594	0.6450367	0.0	0.0
54.19684784905985	272.0	549.0	0.17389181	0.9773801	0.80287594	0.6097284	0.0	0.0
54.213612891733646	271.0	551.0	0.17486839	1.0122877	0.7679683	0.5429612	0.0	0.0
54.230375330895185	269.0	553.0	0.17535669	1.0122877	0.7679683	0.5429612	0.0	0.0
54.24605749268085	268.0	555.0	0.17584497	1.0471954	0.73306066	0.47942045	0.0	0.0
54.263671609107405	267.0	556.0	0.17633326	1.0471954	0.73306066	0.47942045	0.0	0.0
54.28032902488485	266.0	559.0	0.17682154	1.0471954	0.73306066	0.47942045	0.0	0.0
54.296311150770634	265.0	560.0	0.17779812	1.0471954	0.73306066	0.47942045	0.0	0.0
54.31370159704238	264.0	562.0	0.17975128	1.0471954	0.73306066	0.47942045	0.0	0.0
54.32990056788549	262.0	564.0	0.18121615	1.0471954	0.73306066	0.47942045	0.0	0.0
54.3463660008274	261.0	566.0	0.18219273	1.0471954	0.7679683	0.5086362	0.0	0.0
54.36374133406207	261.0	567.0	0.18463416	1.0471954	0.7679683	0.5086362	0.0	0.0
54.37984569789842	259.0	570.0	0.18561074	1.0471954	0.7679683	0.5086362	0.0	0.0
54.396342117805034	259.0	571.0	0.18658732	1.0471954	0.80287594	0.53887093	0.0	0.0
54.41285584587604	258.0	572.0	0.18707561	1.0471954	0.80287594	0.53887093	0.0	0.0
54.43044666107744	257.0	574.0	0.18805219	1.0471954	0.7679683	0.5086362	0.0	0.0
54.44635187089443	257.0	575.0	0.18805219	1.0471954	0.7679683	0.5086362	0.0	0.0
54.46286629186943	256.0	577.0	0.18902877	1.0471954	0.7679683	0.5086362	0.0	0.0
54.48050133371726	256.0	578.0	0.18951705	1.0471954	0.7679683	0.5086362	0.0	0.0
54.496384740807116	255.0	581.0	0.19098192	1.0471954	0.73306066	0.47942045	0.0	0.0
54.51381391379982	254.0	582.0	0.19293508	1.0471954	0.73306066	0.47942045	0.0	0.0
54.5305593716912	253.0	584.0	0.19391166	1.0471954	0.73306066	0.47942045	0.0	0.0
54.547246885020286	253.0	586.0	0.19391166	1.0471954	0.73306066	0.47942045	0.0	0.0
54.562873276881874	253.0	587.0	0.19488823	1.0471954	0.73306066	0.47942045	0.0	0.0
54.58014436811209	253.0	588.0	0.19537652	1.0471954	0.73306066	0.47942045	0.0	0.0
54.596404764801264	253.0	590.0	0.19586481	1.0471954	0.73306066	0.47942045	0.0	0.0
54.611657205969095	253.0	591.0	0.19684139	1.0471954	0.73306066	0.47942045	0.0	0.0
54.630598239135	253.0	592.0	0.19781797	1.0471954	0.698153	0.45115286	0.0	0.0
54.646652731113136	253.0	594.0	0.19781797	1.0471954	0.698153	0.45115286	0.0	0.0
54.66132603073493	253.0	596.0	0.19830625	1.0471954	0.698153	0.45115286	0.0	0.0
54.6806595697999	253.0	597.0	0.19928282	1.0471954	0.698153	0.45115286	0.0	0.0
54.696656831074506	253.0	600.0	0.19977112	1.0471954	0.698153	0.45115286	0.0	0.0
54.71240715077147	254.0	601.0	0.19977112	1.0471954	0.698153	0.45115286	0.0	0.0
54.73071178607643	254.0	602.0	0.20028992	1.0471954	0.698153	0.45115286	0.0	0.0
54.74676497792825	254.0	605.0	0.20028992	1.0471954	0.698153	0.45115286	0.0	0.0
54.762338917702436	255.0	606.0	0.19977112	1.0471954	0.698153	0.45115286	0.0	0.0
54.77791730267927	255.0	607.0	0.19977112	1.0471954	0.698153	0.45115286	0.0	0.0
54.79741577105597	256.0	608.0	0.19977112	1.0471954	0.698153	0.45115286	0.0	0.0
54.812546936795115	257.0	610.0	0.19977112	1.0471954	0.6632454	0.42376542	0.0	0.0
54.830785925034434	257.0	611.0	0.20028992	1.0471954	0.6632454	0.42376542	0.0	0.0
54.8466450846754	258.0	613.0	0.20028992	1.0471954	0.6632454	0.42376542	0.0	0.0
54.862379314843565	259.0	613.0	0.20028992	1.0471954	0.6632454	0.42376542	0.0	0.0
54.88082565786317	259.0	614.0	0.20028992	1.0471954	0.6632454	0.42376542	0.0	0.0
54.896979577839375	260.0	615.0	0.20077822	1.0471954	0.6283377	0.39719307	0.0	0.0
54.91234853491187	260.0	616.0	0.20077822	1.0471954	0.6283377	0.39719307	0.0	0.0
54.9308292591013	260.0	617.0	0.20077822	1.0471954	0.6283377	0.39719307	0.0	0.0
54.94757059775293	261.0	619.0	0.20077822	1.0471954	0.6283377	0.39719307	0.0	0.0
54.963347607757896	261.0	620.0	0.20028992	1.0471954	0.6283377	0.39719307	0.0	0.0
54.97778823878616	261.0	621.0	0.20077822	1.0471954	0.59343004	0.37137407	0.0	0.0
54.997617445886135	262.0	622.0	0.20077822	1.0471954	0.59343004	0.37137407	0.0	0.0
55.01334471069276	262.0	624.0	0.20077822	1.0471954	0.59343004	0.37137407	0.0	0.0
55.02769397199154	262.0	625.0	0.20077822	1.0471954	0.59343004	0.37137407	0.0	0.0
55.04763083392754	262.0	627.0	0.2012665	1.0471954	0.59343004	0.37137407	0.0	0.0
55.063357388135046	262.0	628.0	0.2012665	1.0471954	0.5585224	0.3462494	0.0	0.0
55.077944326680154	262.0	630.0	0.2012665	1.0471954	0.5585224	0.3462494	0.0	0.0
55.09766492107883	262.0	631.0	0.2012665	1.0471954	0.5585224	0.3462494	0.0	0.0
55.11339973798022	261.0	634.0	0.2017548	1.0471954	0.52361476	0.3217631	0.0	0.0
55.13101617293432	261.0	636.0	0.2017548	1.0471954	0.52361476	0.3217631	0.0	0.0
55.14474851079285	260.0	639.0	0.2017548	1.0471954	0.4887071	0.2978619	0.0	0.0
55.16338564408943	260.0	641.0	0.2017548	1.0471954	0.4887071	0.2978619	0.0	0.0
55.180084698833525	260.0	642.0	0.2017548	1.0471954	0.52361476	0.3217631	0.0	0.0
55.19680653512478	259.0	645.0	0.2017548	1.0471954	0.52361476	0.3217631	0.0	0.0
55.21420617494732	258.0	647.0	0.2017548	1.0471954	0.52361476	0.3217631	0.0	0.0
55.229746609926224	258.0	649.0	0.2017548	1.0471954	0.52361476	0.3217631	0.0	0.0
55.24669827288017	257.0	651.0	0.2017548	1.0471954	0.52361476	0.3217631	0.0	0.0
55.26388634508476	257.0	654.0	0.2017548	1.0471954	0.52361476	0.3217631	0.0	0.0
55.27844933187589	256.0	656.0	0.2017548	1.0471954	0.52361476	0.3217631	0.0	0.0
55.2978406897746	256.0	658.0	0.2017548	1.0471954	0.4887071	0.2978619	0.0	0.0
55.31367457099259	255.0	661.0	0.20224307	1.0471954	0.4887071	0.2978619	0.0	0.0
55.32840580493212	254.0	663.0	0.20224307	1.0471954	0.45379946	0.2744953	0.0	0.0
55.34788968600333	254.0	665.0	0.20224307	1.0471954	0.45379946	0.2744953	0.0	0.0
55.36382208811119	252.0	668.0	0.2017548	1.0471954	0.4188918	0.25161505	0.0	0.0
55.37942239176482	251.0	670.0	0.20224307	1.0471954	0.4188918	0.25161505	0.0	0.0
55.397671384736896	251.0	673.0	0.20273137	1.0471954	0.4188918	0.25161505	0.0	0.0
55.41374908480793	249.0	676.0	0.20273137	1.0471954	0.38398415	0.22917534	0.0	0.0
55.4293613047339	248.0	678.0	0.20273137	1.0471954	0.38398415	0.22917534	0.0	0.0
55.444927867967635	247.0	680.0	0.20273137	1.0471954	0.38398415	0.22917534	0.0	0.0
55.46448381384835	246.0	682.0	0.20273137	1.0471954	0.3490765	0.20713232	0.0	0.0
55.47945706406608	245.0	686.0	0.20273137	1.0471954	0.3490765	0.20713232	0.0	0.0
55.49664218397811	244.0	687.0	0.20273137	1.0471954	0.3490765	0.20713232	0.0	0.0
55.514296990819275	243.0	690.0	0.20321965	1.0471954	0.31416884	0.18544407	0.0	0.0
55.52937642112374	243.0	692.0	0.20321965	1.0471954	0.31416884	0.18544407	0.0	0.0
55.54503193171695	242.0	693.0	0.20321965	1.0471954	0.31416884	0.18544407	0.0	0.0
55.56481556594372	242.0	695.0	0.20321965	1.0471954	0.31416884	0.18544407	0.0	0.0
55.57940664375201	241.0	697.0	0.20370795	1.0471954	0.31416884	0.18544407	0.0	0.0
55.595109693706036	240.0	698.0	0.20419623	1.0471954	0.2792612	0.16407043	0.0	0.0
55.61454200092703	240.0	699.0	0.2051728	1.0471954	0.2792612	0.16407043	0.0	0.0
55.630370433907956	240.0	700.0	0.20468453	1.0471954	0.2792612	0.16407043	0.0	0.0
55.644670095760375	240.0	702.0	0.20468453	1.0471954	0.24435355	0.14297265	0.0	0.0
55.664449953939766	239.0	703.0	0.2051728	1.0471954	0.24435355	0.14297265	0.0	0.0
55.68042127089575	239.0	706.0	0.2051728	1.0471954	0.2094459	0.12211342	0.0	0.0
55.69501883909106	239.0	708.0	0.20614938	1.0471954	0.2094459	0.12211342	0.0	0.0
55.71442072791979	239.0	710.0	0.20810254	1.0471954	0.2094459	0.12211342	0.0	0.0
55.730560316704214	238.0	712.0	0.20859084	1.0471954	0.17453825	0.101456545	0.0	0.0
55.74502399889752	238.0	714.0	0.20859084	1.0471954	0.17453825	0.101456545	0.0	0.0
55.7645063190721	238.0	716.0	0.20907912	1.0471954	0.1396306	0.0809668	0.0	0.0
55.780179077759385	238.0	719.0	0.21054399	1.0471954	0.1396306	0.0809668	0.0	0.0
55.79538590088487	238.0	721.0	0.21249714	1.0471954	0.1396306	0.0809668	0.0	0.0
55.81179583771154	238.0	723.0	0.21298543	1.0471954	0.1396306	0.0809668	0.0	0.0
55.83039133809507	238.0	726.0	0.21298543	1.0471954	0.1396306	0.0809668	0.0	0.0
55.84543093806133	238.0	727.0	0.213962	1.0471954	0.1396306	0.0809668	0.0	0.0
55.86497854068875	238.0	729.0	0.21738003	1.0471954	0.1396306	0.0809668	0.0	0.0
55.879814920946956	239.0	732.0	0.21884489	1.0471954	0.1396306	0.0809668	0.0	0.0
55.895386504009366	240.0	734.0	0.21982147	1.0471954	0.10472295	0.06060979	0.0	0.0
55.91502777300775	240.0	736.0	0.22226292	1.0471954	0.0698153	0.040351782	0.0	0.0
55.930592304095626	241.0	738.0	0.22372778	1.0471954	0.0698153	0.040351782	0.0	0.0
55.94542232295498	241.0	739.0	0.22519265	1.0471954	0.03490765	0.020159498	0.0	0.0
55.961815350688994	242.0	740.0	0.22861066	1.0471954	0.03490765	0.020159498	0.0	0.0
55.98146120784804	243.0	741.0	0.23007554	1.0471954	-0.0	0.0	0.0	0.0
55.995469998102635	244.0	743.0	0.2320287	1.0471954	-0.0	0.0	0.0	0.0
56.0140221118927	245.0	744.0	0.23349355	1.0471954	-0.0	0.0	0.0	0.0
56.030541961081326	246.0	745.0	0.23349355	1.0471954	-0.0	0.0	0.0	0.0
56.04641862772405	247.0	746.0	0.23495843	1.0471954	-0.0	0.0	0.0	0.0
56.06133515993133	249.0	746.0	0.23739986	1.0471954	-0.0	0.0	0.0	0.0
56.081420643720776	250.0	747.0	0.23984131	1.0471954	-0.0	0.0	0.0	0.0
56.09638833068311	252.0	748.0	0.24228275	1.0471954	-0.0	0.0	0.0	0.0
56.11474928772077	254.0	749.0	0.24618906	1.0471954	-0.0	0.0	0.0	0.0
56.12966821389273	257.0	751.0	0.24716564	1.0471954	-0.0	0.0	0.0	0.0
56.14638583781198	258.0	752.0	0.24960709	1.0471954	-0.0	0.0	0.0	0.0
56.1619626628235	260.0	753.0	0.25497827	1.0471954	-0.0	0.0	0.0	0.0
56.18152054771781	262.0	754.0	0.25888458	1.0471954	-0.0	0.0	0.0	0.0
56.196609328035265	264.0	755.0	0.26327917	1.0471954	-0.0	0.0	0.0	0.0
56.21168951597065	266.0	756.0	0.267216	1.0471954	-0.0	0.0	0.0	0.0
56.23114563385025	267.0	757.0	0.27307546	1.0471954	-0.0	0.0	0.0	0.0
56.24645597767085	270.0	760.0	0.2764935	1.0471954	-0.0	0.0	0.0	0.0
56.26141740893945	272.0	761.0	0.2803998	1.0471954	-0.0	0.0	0.0	0.0
56.281922403723	274.0	762.0	0.28284124	1.0471954	-0.0	0.0	0.0	0.0
56.29743974097073	277.0	765.0	0.2847944	1.0471954	-0.0	0.0	0.0	0.0
56.311802302952856	280.0	766.0	0.28577095	1.0471954	-0.0	0.0	0.0	0.0
56.331077015027404	282.0	768.0	0.2877241	1.0471954	-0.0	0.0	0.0	0.0
56.34739688783884	285.0	770.0	0.28674755	1.0471954	-0.0	0.0	0.0	0.0
56.36180710606277	287.0	771.0	0.28723583	1.0471954	-0.0	0.0	0.0	0.0
56.38162973104045	288.0	773.0	0.2877241	1.0122877	-0.0	0.0	0.0	0.0
56.39711193367839	291.0	775.0	0.2877241	1.0122877	-0.0	0.0	0.0	0.0
56.41167188808322	292.0	776.0	0.2877241	1.0122877	-0.0	0.0	0.0	0.0
56.42810321273282	294.0	777.0	0.28821242	1.0122877	-0.03487356	-0.02179696	0.0	0.0
56.447397600859404	295.0	779.0	0.2877241	1.0122877	-0.03487356	-0.02179696	0.0	0.0
56.4624003181234	297.0	780.0	0.2877241	1.0122877	-0.03487356	-0.02179696	0.0	0.0
56.48060396872461	298.0	782.0	0.2838178	1.0122877	-0.069781214	-0.043647632	0.0	0.0
56.4974052910693	300.0	786.0	0.2716106	1.0122877	-0.069781214	-0.043647632	0.0	0.0
56.51240208186209	300.0	788.0	0.24521248	1.0122877	-0.069781214	-0.043647632	0.0	0.0
56.53145481785759	301.0	790.0	0.0830396	1.0122877	-0.10468886	-0.06556326	0.0	0.0
Pause
57.32813175069168	326.0	525.0	0.075715266	1.0471954	0.7679683	0.5086362	0.0	0.0
57.34496130282059	326.0	525.0	0.09719997	1.0471954	0.7679683	0.5086362	0.0	0.0
57.36441733688116	326.0	525.0	0.12014954	1.0471954	0.73306066	0.47942045	0.0	0.0
57.38037402369082	326.0	525.0	0.12503242	1.0471954	0.73306066	0.47942045	0.0	0.0
57.3945969697088	326.0	525.0	0.12698558	1.0471954	0.73306066	0.47942045	0.0	0.0
57.415035276673734	326.0	525.0	0.13531701	1.0471954	0.73306066	0.47942045	0.0	0.0
57.42962692398578	327.0	524.0	0.14557107	1.0471954	0.7679683	0.5086362	0.0	0.0
57.44527078187093	328.0	524.0	0.16217288	1.0471954	0.7679683	0.5086362	0.0	0.0
57.46447852673009	330.0	524.0	0.16852064	1.0471954	0.7679683	0.5086362	0.0	0.0
57.4804361211136	331.0	524.0	0.17193866	1.0471954	0.7679683	0.5086362	0.0	0.0
57.4950534128584	333.0	524.0	0.17535669	1.0471954	0.7679683	0.5086362	0.0	0.0
57.511636678129435	334.0	524.0	0.1787747	1.0471954	0.7679683	0.5086362	0.0	0.0
57.53046050388366	337.0	524.0	0.18121615	1.0471954	0.7679683	0.5086362	0.0	0.0
57.54542421782389	339.0	524.0	0.18707561	1.0471954	0.7679683	0.5086362	0.0	0.0
57.564670596737415	340.0	524.0	0.19049363	1.0471954	0.7679683	0.5086362	0.0	0.0
57.580465480685234	343.0	525.0	0.19293508	1.0471954	0.7679683	0.5086362	0.0	0.0
57.59548510471359	344.0	525.0	0.1963531	1.0471954	0.7679683	0.5086362	0.0	0.0
57.614946336019784	346.0	526.0	0.19928282	1.0471954	0.7679683	0.5086362	0.0	0.0
57.62979735387489	348.0	526.0	0.20077822	1.0471954	0.7679683	0.5086362	0.0	0.0
57.645464391913265	350.0	527.0	0.20224307	1.0471954	0.7679683	0.5086362	0.0	0.0
57.66477388283238	352.0	527.0	0.20468453	1.0471954	0.7679683	0.5086362	0.0	0.0
57.68039777409285	354.0	528.0	0.20712596	1.0471954	0.7679683	0.5086362	0.0	0.0
57.695475407876074	355.0	528.0	0.20907912	1.0471954	0.7679683	0.5086362	0.0	0.0
57.7146923369728	356.0	529.0	0.21347372	1.0471954	0.7679683	0.5086362	0.0	0.0
57.73073783097789	359.0	530.0	0.21835661	1.0122877	0.7679683	0.5429612	0.0	0.0
57.74548612907529	361.0	531.0	0.22079805	1.0122877	0.7679683	0.5429612	0.0	0.0
57.76495914068073	363.0	531.0	0.23300527	0.9773801	0.80287594	0.6097284	0.0	0.0
57.77960322005674	365.0	532.0	0.23984131	0.9773801	0.7679683	0.5773601	0.0	0.0
57.79549487493932	367.0	532.0	0.24618906	0.9773801	0.7679683	0.5773601	0.0	0.0
57.8111811587587	368.0	533.0	0.25107196	0.9773801	0.7679683	0.5773601	0.0	0.0
57.83151119109243	370.0	534.0	0.2530251	0.9773801	0.7679683	0.5773601	0.0	0.0
57.84546624310315	373.0	535.0	0.25497827	0.9773801	0.7679683	0.5773601	0.0	0.0
57.86498797312379	374.0	535.0	0.257908	0.9773801	0.7679683	0.5773601	0.0	0.0
57.8801446207799	377.0	537.0	0.26376745	0.9773801	0.7679683	0.5773601	0.0	0.0
57.896480676718056	378.0	538.0	0.27209887	0.9773801	0.7679683	0.5773601	0.0	0.0
57.911800743080676	380.0	538.0	0.27795833	0.9773801	0.73306066	0.545816	0.0	0.0
57.93123641377315	381.0	539.0	0.2794232	0.9773801	0.73306066	0.545816	0.0	0.0
57.94649374298751	383.0	541.0	0.28088808	0.9773801	0.73306066	0.545816	0.0	0.0
57.961781651712954	385.0	542.0	0.2838178	0.9773801	0.73306066	0.545816	0.0	0.0
58.03591214399785	386.0	543.0	0.2847944	0.9773801	0.73306066	0.545816	0.0	0.0
58.042077337857336	388.0	544.0	0.30969712	0.9773801	0.698153	0.5150515	0.0	0.0
58.060775347054005	395.0	552.0	0.31311512	0.9773801	0.698153	0.5150515	0.0	0.0
58.075876839924604	396.0	554.0	0.3155566	1.0122877	0.6632454	0.45418358	0.0	0.0
58.09199871076271	397.0	556.0	0.31653315	1.0122877	0.6632454	0.45418358	0.0	0.0
58.11148216202855	398.0	558.0	0.31702143	1.0122877	0.6632454	0.45418358	0.0	0.0
58.125762199983	399.0	560.0	0.31702143	0.9773801	0.6632454	0.48502195	0.0	0.0
58.14245485793799	400.0	562.0	0.31702143	0.94247246	0.698153	0.547503	0.0	0.0
58.15896867169067	401.0	564.0	0.31702143	0.94247246	0.698153	0.547503	0.0	0.0
58.17511209100485	403.0	567.0	0.31750974	0.9075648	0.698153	0.5803113	0.0	0.0
58.19177633477375	404.0	569.0	0.31897458	0.8726572	0.698153	0.61349195	0.0	0.0
58.211507372092456	404.0	571.0	0.32043946	0.8726572	0.698153	0.61349195	0.0	0.0
58.225697862915695	406.0	574.0	0.32043946	0.8726572	0.698153	0.61349195	0.0	0.0
58.241971876937896	407.0	576.0	0.3194629	0.8726572	0.6632454	0.58031154	0.0	0.0
58.25886669009924	408.0	579.0	0.31995118	0.8726572	0.6632454	0.58031154	0.0	0.0
58.27553718071431	409.0	583.0	0.31995118	0.8726572	0.6632454	0.58031154	0.0	0.0
58.29268043488264	410.0	586.0	0.32043946	0.9075648	0.6283377	0.5163063	0.0	0.0
58.30927390186116	411.0	591.0	0.32043946	0.9075648	0.6283377	0.5163063	0.0	0.0
58.32595374668017	412.0	594.0	0.32043946	0.9075648	0.59343004	0.48502243	0.0	0.0
58.342770592775196	412.0	596.0	0.31995118	0.9075648	0.59343004	0.48502243	0.0	0.0
58.362227347679436	413.0	599.0	0.32043946	0.9075648	0.59343004	0.48502243	0.0	0.0
58.376504003070295	414.0	603.0	0.32043946	0.9075648	0.59343004	0.48502243	0.0	0.0
58.39182605408132	415.0	606.0	0.32043946	0.8726572	0.5585224	0.4829416	0.0	0.0
58.40937394788489	416.0	609.0	0.32043946	0.8726572	0.5585224	0.4829416	0.0	0.0
58.42564022401348	417.0	614.0	0.32043946	0.8726572	0.5585224	0.4829416	0.0	0.0
58.44226089771837	418.0	617.0	0.32141605	0.8726572	0.52361476	0.45115438	0.0	0.0
58.45988746592775	419.0	620.0	0.32141605	0.8726572	0.52361476	0.45115438	0.0	0.0
58.475793960969895	420.0	625.0	0.32141605	0.8726572	0.4887071	0.41967267	0.0	0.0
58.49240965768695	420.0	629.0	0.32190433	0.8726572	0.45379946	0.38847795	0.0	0.0
58.50900562712923	421.0	633.0	0.32190433	0.8726572	0.4188918	0.35755122	0.0	0.0
58.52600612072274	421.0	639.0	0.32190433	0.83774954	0.38398415	0.34892023	0.0	0.0
58.542525643948466	422.0	642.0	0.3223926	0.83774954	0.3490765	0.3167052	0.0	0.0
58.55882992967963	422.0	646.0	0.3223926	0.83774954	0.3490765	0.3167052	0.0	0.0
58.57588740903884	422.0	651.0	0.3238575	0.83774954	0.31416884	0.28462967	0.0	0.0
58.59254044992849	422.0	655.0	0.32434577	0.83774954	0.2792612	0.25268075	0.0	0.0
58.609057824127376	422.0	659.0	0.32434577	0.83774954	0.2792612	0.25268075	0.0	0.0
58.62563996575773	421.0	666.0	0.32434577	0.83774954	0.24435355	0.22084506	0.0	0.0
58.64259557100013	421.0	670.0	0.32434577	0.83774954	0.2094459	0.18910903	0.0	0.0
58.65965036675334	420.0	673.0	0.32532236	0.83774954	0.17453825	0.15745884	0.0	0.0
58.675996681675315	419.0	679.0	0.32532236	0.83774954	0.17453825	0.15745884	0.0	0.0
58.69252904411405	418.0	682.0	0.32434577	0.83774954	0.1396306	0.12588048	0.0	0.0
58.709575179964304	418.0	686.0	0.32043946	0.83774954	0.1396306	0.12588048	0.0	0.0
58.72610538313165	416.0	692.0	0.31653315	0.80284184	0.10472295	0.1011566	0.0	0.0
58.7425159169361	415.0	695.0	0.3155566	0.80284184	0.10472295	0.1011566	0.0	0.0
58.759459373075515	414.0	699.0	0.3140917	0.80284184	0.0698153	0.06742853	0.0	0.0
58.776980257127434	412.0	703.0	0.3140917	0.80284184	0.0698153	0.06742853	0.0	0.0
58.79257261706516	410.0	706.0	0.31360343	0.80284184	0.0698153	0.06742853	0.0	0.0
58.8092356598936	409.0	709.0	0.3101854	0.7679342	0.03490765	0.03614764	0.0	0.0
58.826487987767905	408.0	712.0	0.30872053	0.7679342	0.03490765	0.03614764	0.0	0.0
58.84235512977466	406.0	716.0	0.30969712	0.7679342	-0.0	0.0	0.0	0.0
58.85919066891074	405.0	718.0	0.3092088	0.7679342	-0.0	0.0	0.0	0.0
58.8756036167033	404.0	721.0	0.30872053	0.7679342	-0.0	0.0	0.0	0.0
58.89273363398388	402.0	724.0	0.3092088	0.7679342	-0.0	0.0	0.0	0.0
58.90933243185282	401.0	726.0	0.30872053	0.7679342	-0.0	0.0	0.0	0.0
58.926037156023085	400.0	729.0	0.30774397	0.7679342	-0.0	0.0	0.0	0.0
