time	x	y	pressure	tiltX	tiltY	azimuth	sidePressure	rotation
10.849015152081847	591.0	560.0	0.05273518	1.0122877	0.59343004	0.3989017	0.0	0.0
10.98995019029826	582.0	523.0	0.058106355	1.0471954	0.4887071	0.2978619	0.0	0.0
11.006892630364746	582.0	521.0	0.058106355	1.0471954	0.4887071	0.2978619	0.0	0.0
11.025131695438176	584.0	516.0	0.058594644	1.0471954	0.4887071	0.2978619	0.0	0.0
11.04107212414965	586.0	508.0	0.058594644	1.0471954	0.4887071	0.2978619	0.0	0.0
11.059456626418978	588.0	503.0	0.058594644	1.0471954	0.52361476	0.3217631	0.0	0.0
11.073458010330796	591.0	498.0	0.058106355	1.0471954	0.52361476	0.3217631	0.0	0.0
11.090272305998951	597.0	490.0	0.058106355	1.0471954	0.52361476	0.3217631	0.0	0.0
11.109460660256445	601.0	485.0	0.057618067	1.0122877	0.52361476	0.34624982	0.0	0.0
11.125281332060695	605.0	480.0	0.057129778	1.0122877	0.52361476	0.34624982	0.0	0.0
11.142080892343074	612.0	473.0	0.057129778	1.0122877	0.52361476	0.34624982	0.0	0.0
11.15713039599359	617.0	468.0	0.055664912	0.9773801	0.52361476	0.37137482	0.0	0.0
11.175915980245918	623.0	464.0	0.05322347	0.9773801	0.52361476	0.37137482	0.0	0.0
11.191600704099983	633.0	458.0	0.050293736	0.9773801	0.52361476	0.37137482	0.0	0.0
11.206532392185181	640.0	455.0	0.04931716	0.9773801	0.52361476	0.37137482	0.0	0.0
11.223478845320642	646.0	452.0	0.04931716	0.9773801	0.5585224	0.39890203	0.0	0.0
11.24167700810358	655.0	447.0	0.049805447	0.9773801	0.5585224	0.39890203	0.0	0.0
11.257812665309757	662.0	445.0	0.049805447	0.94247246	0.59343004	0.4556832	0.0	0.0
11.27387857530266	668.0	443.0	0.050293736	0.94247246	0.59343004	0.4556832	0.0	0.0
11.291223041247576	675.0	442.0	0.05322347	0.94247246	0.6283377	0.48571083	0.0	0.0
11.307535073254257	684.0	440.0	0.055176623	0.94247246	0.6283377	0.48571083	0.0	0.0
11.326256012078375	693.0	438.0	0.055664912	0.94247246	0.6283377	0.48571083	0.0	0.0
11.340938634239137	696.0	438.0	0.055664912	0.9075648	0.59343004	0.48502243	0.0	0.0
11.356581294443458	706.0	438.0	0.055664912	0.9075648	0.59343004	0.48502243	0.0	0.0
11.375225362367928	712.0	438.0	0.054688334	0.9075648	0.5585224	0.45418444	0.0	0.0
11.391093884129077	721.0	439.0	0.055664912	0.9075648	0.5585224	0.45418444	0.0	0.0
11.407651212066412	727.0	441.0	0.055664912	0.9075648	0.5585224	0.45418444	0.0	0.0
11.423958664294332	733.0	443.0	0.055664912	0.8726572	0.5585224	0.4829416	0.0	0.0
11.44097128836438	738.0	445.0	0.055664912	0.8726572	0.59343004	0.5150522	0.0	0.0
11.4586345651187	746.0	449.0	0.055176623	0.8726572	0.59343004	0.5150522	0.0	0.0
11.474159673321992	752.0	453.0	0.055176623	0.83774954	0.6283377	0.5793357	0.0	0.0
11.491857219021767	758.0	459.0	0.055664912	0.83774954	0.6283377	0.5793357	0.0	0.0
11.50725161517039	762.0	464.0	0.0561532	0.80284184	0.59343004	0.57736105	0.0	0.0
11.52487947512418	765.0	470.0	0.057618067	0.80284184	0.59343004	0.57736105	0.0	0.0
11.542042240034789	768.0	476.0	0.061036088	0.80284184	0.59343004	0.57736105	0.0	0.0
11.55743525037542	771.0	486.0	0.06445411	0.80284184	0.59343004	0.57736105	0.0	0.0
11.574428180232644	773.0	493.0	0.06640726	0.80284184	0.5585224	0.54296255	0.0	0.0
11.590961842332035	775.0	501.0	0.06936751	0.7679342	0.5585224	0.5743406	0.0	0.0
11.607598633039743	777.0	514.0	0.0698558	0.7679342	0.5585224	0.5743406	0.0	0.0
11.623580260202289	779.0	523.0	0.0698558	0.7679342	0.5585224	0.5743406	0.0	0.0
11.641510342247784	780.0	531.0	0.0698558	0.7679342	0.5585224	0.5743406	0.0	0.0
11.657577804289758	780.0	544.0	0.07034409	0.7679342	0.5585224	0.5743406	0.0	0.0
11.673629836179316	780.0	552.0	0.07083238	0.7679342	0.52361476	0.5388729	0.0	0.0
11.690361666027457	780.0	560.0	0.07180896	0.7679342	0.52361476	0.5388729	0.0	0.0
11.706923896446824	777.0	570.0	0.07473869	0.7679342	0.52361476	0.5388729	0.0	0.0
11.725236294325441	775.0	577.0	0.07913329	0.73302656	0.52361476	0.5702003	0.0	0.0
11.740105318371207	773.0	584.0	0.079621576	0.73302656	0.4887071	0.53344816	0.0	0.0
11.757616064045578	768.0	593.0	0.079621576	0.73302656	0.4887071	0.53344816	0.0	0.0
11.77364157512784	764.0	598.0	0.079621576	0.73302656	0.4887071	0.53344816	0.0	0.0
11.790210503153503	759.0	604.0	0.076203555	0.73302656	0.52361476	0.5702003	0.0	0.0
11.806675595231354	751.0	611.0	0.07669184	0.73302656	0.4887071	0.53344816	0.0	0.0
11.823847173247486	744.0	616.0	0.078645	0.73302656	0.4887071	0.53344816	0.0	0.0
11.840487583074719	738.0	620.0	0.080109864	0.73302656	0.4887071	0.53344816	0.0	0.0
11.857007552403957	731.0	624.0	0.0830396	0.73302656	0.45379946	0.49645913	0.0	0.0
11.873018043115735	720.0	629.0	0.08499275	0.73302656	0.45379946	0.49645913	0.0	0.0
11.891752111259848	711.0	631.0	0.08694591	0.7679342	0.4188918	0.4320244	0.0	0.0
11.907728882040828	699.0	634.0	0.08841077	0.7679342	0.38398415	0.39627093	0.0	0.0
11.92344511905685	690.0	635.0	0.094758525	0.7679342	0.38398415	0.39627093	0.0	0.0
11.94046329613775	681.0	635.0	0.10159457	0.80284184	0.3490765	0.33801085	0.0	0.0
11.957290838006884	672.0	635.0	0.11136034	0.80284184	0.3490765	0.33801085	0.0	0.0
11.975285498425364	658.0	633.0	0.11233692	0.83774954	0.3490765	0.3167052	0.0	0.0
11.992503218352795	648.0	630.0	0.113313496	0.83774954	0.38398415	0.34892023	0.0	0.0
12.006856631021947	633.0	625.0	0.113801785	0.8726572	0.38398415	0.3268731	0.0	0.0
12.023623270448297	623.0	621.0	0.113313496	0.8726572	0.38398415	0.3268731	0.0	0.0
12.041615705005825	614.0	615.0	0.11233692	0.9075648	0.4188918	0.3347736	0.0	0.0
12.05747725116089	606.0	608.0	0.11136034	0.9075648	0.4188918	0.3347736	0.0	0.0
12.074396413285285	595.0	596.0	0.11087205	0.9075648	0.45379946	0.36408767	0.0	0.0
12.092486907262355	588.0	586.0	0.110383764	0.94247246	0.45379946	0.34056696	0.0	0.0
12.10673593217507	580.0	570.0	0.11282521	0.94247246	0.4887071	0.36866468	0.0	0.0
12.123989083338529	576.0	558.0	0.117708094	0.94247246	0.4887071	0.36866468	0.0	0.0
12.142091776244342	574.0	546.0	0.126009	0.94247246	0.4887071	0.36866468	0.0	0.0
12.157333448063582	573.0	526.0	0.12698558	0.9773801	0.52361476	0.37137482	0.0	0.0
12.173978778999299	575.0	512.0	0.1264973	0.9773801	0.52361476	0.37137482	0.0	0.0
12.189928162377328	579.0	498.0	0.1264973	0.9773801	0.52361476	0.37137482	0.0	0.0
12.208455118350685	584.0	484.0	0.12552072	0.9773801	0.52361476	0.37137482	0.0	0.0
12.224875029176474	595.0	465.0	0.12405585	0.9773801	0.52361476	0.37137482	0.0	0.0
12.241989442147315	603.0	453.0	0.12307927	0.94247246	0.5585224	0.426189	0.0	0.0
12.257708601187915	618.0	437.0	0.12307927	0.94247246	0.5585224	0.426189	0.0	0.0
12.274643136188388	629.0	429.0	0.12307927	0.9075648	0.5585224	0.45418444	0.0	0.0
12.292137572076172	641.0	422.0	0.12307927	0.9075648	0.5585224	0.45418444	0.0	0.0
12.308960470370948	653.0	417.0	0.12210269	0.8726572	0.59343004	0.5150522	0.0	0.0
12.324691593181342	672.0	413.0	0.12210269	0.83774954	0.59343004	0.54581684	0.0	0.0
12.34033475536853	685.0	413.0	0.12307927	0.83774954	0.59343004	0.54581684	0.0	0.0
12.359125112183392	698.0	414.0	0.12503242	0.80284184	0.6283377	0.6118363	0.0	0.0
12.374652888160199	716.0	420.0	0.12698558	0.80284184	0.59343004	0.57736105	0.0	0.0
12.392226461321115	727.0	426.0	0.12698558	0.7679342	0.59343004	0.6097294	0.0	0.0
12.407016029115766	737.0	434.0	0.12698558	0.73302656	0.59343004	0.64296615	0.0	0.0
12.424544184003025	751.0	449.0	0.12747388	0.73302656	0.5585224	0.6067083	0.0	0.0
12.440952237229794	758.0	461.0	0.1264973	0.6981189	0.52361476	0.60269636	0.0	0.0
12.457554418127984	764.0	475.0	0.12747388	0.6981189	0.52361476	0.60269636	0.0	0.0
12.474904629401863	770.0	496.0	0.12747388	0.6632113	0.4887071	0.59758747	0.0	0.0
12.491632956080139	772.0	510.0	0.12307927	0.6632113	0.4887071	0.59758747	0.0	0.0
Pause
15.075984333176166	595.0	470.0	0.083527885	1.0471954	0.31416884	0.18544407	0.0	0.0
15.091338510159403	595.0	470.0	0.08255131	1.0471954	0.3490765	0.20713232	0.0	0.0
15.108093168120831	595.0	470.0	0.08206302	1.0471954	0.3490765	0.20713232	0.0	0.0
15.124583464115858	598.0	471.0	0.083527885	1.0471954	0.38398415	0.22917534	0.0	0.0
15.141525623388588	603.0	473.0	0.08450446	1.0471954	0.38398415	0.22917534	0.0	0.0
15.158110552001745	608.0	476.0	0.08596933	1.0471954	0.38398415	0.22917534	0.0	0.0
15.174536128062755	612.0	480.0	0.08889906	1.0471954	0.38398415	0.22917534	0.0	0.0
15.192385119386017	616.0	484.0	0.09036393	1.0471954	0.3490765	0.20713232	0.0	0.0
15.207996192388237	622.0	489.0	0.091340505	1.0471954	0.3490765	0.20713232	0.0	0.0
15.22371035721153	625.0	493.0	0.091340505	1.0471954	0.31416884	0.18544407	0.0	0.0
15.243042127229273	628.0	496.0	0.08987564	1.0471954	0.2792612	0.16407043	0.0	0.0
15.259140889160335	632.0	503.0	0.05664149	1.0471954	0.24435355	0.14297265	0.0	0.0
Pause
15.625507818069309	594.0	471.0	0.053711757	1.0471954	0.3490765	0.20713232	0.0	0.0
15.642266559414566	595.0	471.0	0.054200046	1.0471954	0.3490765	0.20713232	0.0	0.0
15.65855312300846	598.0	472.0	0.05664149	1.0471954	0.3490765	0.20713232	0.0	0.0
15.67413622001186	603.0	473.0	0.06005951	1.0471954	0.3490765	0.20713232	0.0	0.0
15.690060363151133	608.0	477.0	0.061036088	1.0471954	0.31416884	0.18544407	0.0	0.0
15.708399649243802	614.0	482.0	0.062012665	1.0471954	0.31416884	0.18544407	0.0	0.0
15.723951468244195	622.0	489.0	0.06250095	1.0471954	0.31416884	0.18544407	0.0	0.0
15.74234574707225	627.0	494.0	0.062012665	1.0471954	0.2792612	0.16407043	0.0	0.0
15.75680010812357	633.0	502.0	0.0058594644	1.0471954	0.24435355	0.14297265	0.0	0.0
Pause
18.75973520008847	630.0	503.0	0.013183795	1.0471954	0.698153	0.45115286	0.0	0.0
18.77497928403318	630.0	503.0	0.013183795	1.0471954	0.698153	0.45115286	0.0	0.0
18.792277057189494	630.0	503.0	0.013672084	1.0471954	0.698153	0.45115286	0.0	0.0
18.807828731369227	630.0	503.0	0.013672084	1.0471954	0.698153	0.45115286	0.0	0.0
18.824932632036507	630.0	503.0	0.013672084	1.0471954	0.698153	0.45115286	0.0	0.0
18.841365770436823	630.0	504.0	0.014160372	1.0471954	0.698153	0.45115286	0.0	0.0
18.857921230141073	629.0	504.0	0.014160372	1.0471954	0.698153	0.45115286	0.0	0.0
18.874955743085593	629.0	505.0	0.014160372	1.0471954	0.698153	0.45115286	0.0	0.0
18.890792716294527	628.0	506.0	0.014648661	1.0471954	0.6632454	0.42376542	0.0	0.0
18.907367882318795	628.0	506.0	0.014648661	1.0471954	0.6632454	0.42376542	0.0	0.0
18.924544611014426	627.0	507.0	0.014648661	1.0471954	0.6632454	0.42376542	0.0	0.0
18.9410977284424	627.0	507.0	0.014160372	1.0471954	0.6632454	0.42376542	0.0	0.0
18.957059323322028	626.0	509.0	0.014160372	1.0471954	0.6632454	0.42376542	0.0	0.0
18.97609784314409	625.0	510.0	0.014160372	1.0471954	0.6283377	0.39719307	0.0	0.0
18.99308506399393	624.0	512.0	0.013672084	1.0471954	0.6283377	0.39719307	0.0	0.0
19.007904280442744	624.0	513.0	0.014160372	1.0471954	0.6283377	0.39719307	0.0	0.0
19.023549154400826	623.0	515.0	0.014160372	1.0471954	0.59343004	0.37137407	0.0	0.0
19.040643603075296	622.0	517.0	0.01513695	1.0471954	0.59343004	0.37137407	0.0	0.0
19.05894403439015	622.0	520.0	0.016601816	1.0471954	0.59343004	0.37137407	0.0	0.0
19.073642433155328	622.0	522.0	0.01855497	1.0471954	0.5585224	0.3462494	0.0	0.0
19.09283071011305	621.0	524.0	0.021972992	1.0471954	0.5585224	0.3462494	0.0	0.0
19.108657200355083	621.0	527.0	0.024414435	1.0471954	0.5585224	0.3462494	0.0	0.0
19.12526004901156	621.0	530.0	0.027832456	1.0471954	0.5585224	0.3462494	0.0	0.0
19.14181542629376	621.0	533.0	0.0302739	1.0471954	0.52361476	0.3217631	0.0	0.0
19.157739414367825	622.0	538.0	0.031250477	1.0471954	0.52361476	0.3217631	0.0	0.0
19.17413886124268	622.0	542.0	0.03320363	1.0471954	0.52361476	0.3217631	0.0	0.0
19.190544355195016	622.0	546.0	0.03418021	1.0471954	0.4887071	0.2978619	0.0	0.0
19.207535499241203	623.0	549.0	0.034668498	1.0471954	0.4887071	0.2978619	0.0	0.0
19.22417832398787	624.0	555.0	0.035156786	1.0471954	0.45379946	0.2744953	0.0	0.0
19.240461802110076	625.0	559.0	0.035645075	1.0471954	0.4188918	0.25161505	0.0	0.0
19.25771805923432	625.0	565.0	0.035645075	1.0471954	0.4188918	0.25161505	0.0	0.0
19.27527992706746	626.0	570.0	0.036621653	1.0471954	0.38398415	0.22917534	0.0	0.0
19.292029190342873	627.0	573.0	0.03759823	1.0471954	0.38398415	0.22917534	0.0	0.0
19.308444295078516	628.0	579.0	0.03808652	1.0471954	0.3490765	0.20713232	0.0	0.0
19.324377896264195	628.0	583.0	0.040039673	1.0471954	0.3490765	0.20713232	0.0	0.0
19.34080257313326	629.0	587.0	0.04150454	1.0471954	0.31416884	0.18544407	0.0	0.0
19.35766749922186	630.0	593.0	0.04199283	1.0471954	0.2792612	0.16407043	0.0	0.0
19.376787351444364	631.0	597.0	0.04443427	1.0471954	0.24435355	0.14297265	0.0	0.0
19.392843699082732	631.0	601.0	0.046387427	1.0471954	0.2094459	0.12211342	0.0	0.0
19.409599512349814	632.0	606.0	0.046875715	1.0471954	0.2094459	0.12211342	0.0	0.0
19.42594067705795	632.0	609.0	0.047364004	1.0471954	0.17453825	0.101456545	0.0	0.0
19.442268311046064	632.0	613.0	0.047364004	1.0471954	0.17453825	0.101456545	0.0	0.0
19.458535770419985	632.0	618.0	0.047364004	1.0471954	0.17453825	0.101456545	0.0	0.0
19.474980322178453	632.0	621.0	0.047364004	1.0471954	0.1396306	0.0809668	0.0	0.0
19.49238464841619	631.0	624.0	0.047364004	1.0471954	0.10472295	0.06060979	0.0	0.0
19.509748382028192	630.0	629.0	0.047364004	1.0471954	0.10472295	0.06060979	0.0	0.0
19.524365823250264	629.0	632.0	0.047364004	1.0471954	0.0698153	0.040351782	0.0	0.0
19.54153799917549	627.0	634.0	0.047364004	1.0471954	0.03490765	0.020159498	0.0	0.0
19.557565200142562	625.0	638.0	0.047364004	1.0471954	0.03490765	0.020159498	0.0	0.0
19.576279413420707	624.0	639.0	0.04834058	1.0471954	-0.0	0.0	0.0	0.0
19.59050118131563	622.0	641.0	0.051270314	1.0471954	-0.0	0.0	0.0	0.0
19.606809137389064	620.0	643.0	0.05224689	1.0471954	-0.0	0.0	0.0	0.0
19.62495139800012	617.0	645.0	0.05322347	1.0471954	-0.0	0.0	0.0	0.0
19.641990238334984	615.0	647.0	0.055176623	1.0471954	-0.0	0.0	0.0	0.0
19.65810426324606	613.0	648.0	0.061036088	1.0471954	-0.03487356	-0.0201398	0.0	0.0
19.67433949932456	611.0	649.0	0.065430686	1.0471954	-0.069781214	-0.040332038	0.0	0.0
19.69228720618412	609.0	650.0	0.068390936	1.0471954	-0.10468886	-0.060589965	0.0	0.0
19.707553051412106	607.0	650.0	0.07034409	1.0471954	-0.10468886	-0.060589965	0.0	0.0
19.723714935127646	605.0	649.0	0.072297245	1.0471954	-0.1395965	-0.080946855	0.0	0.0
19.742461963091046	601.0	648.0	0.07522698	1.0471954	-0.1395965	-0.080946855	0.0	0.0
19.757149027194828	598.0	647.0	0.075715266	1.0471954	-0.10468886	-0.060589965	0.0	0.0
19.774373966269195	594.0	646.0	0.0742504	1.0471954	-0.10468886	-0.060589965	0.0	0.0
19.791194435209036	592.0	644.0	0.02978561	1.0471954	-0.069781214	-0.040332038	0.0	0.0
Pause
20.85895579913631	607.0	650.0	0.023926146	1.0471954	-0.1395965	-0.080946855	0.0	0.0
20.87566623231396	606.0	651.0	0.036621653	1.0471954	-0.17450416	-0.10143646	0.0	0.0
20.892465081997216	605.0	651.0	0.054688334	1.0471954	-0.17450416	-0.10143646	0.0	0.0
20.90903114620596	604.0	651.0	0.062012665	1.0471954	-0.17450416	-0.10143646	0.0	0.0
20.925705089233816	602.0	652.0	0.06741436	1.0471954	-0.20941181	-0.12209316	0.0	0.0
20.940815357025713	600.0	652.0	0.07083238	1.0471954	-0.17450416	-0.10143646	0.0	0.0
20.95845748204738	598.0	653.0	0.0742504	1.0471954	-0.17450416	-0.10143646	0.0	0.0
20.975556067191064	596.0	653.0	0.07913329	1.0471954	-0.1395965	-0.080946855	0.0	0.0
20.992056539282203	594.0	653.0	0.084016174	1.0471954	-0.10468886	-0.060589965	0.0	0.0
21.00844359025359	590.0	652.0	0.08596933	1.0471954	-0.10468886	-0.060589965	0.0	0.0
21.025161899160594	588.0	651.0	0.087434195	1.0471954	-0.10468886	-0.060589965	0.0	0.0
21.0422948054038	586.0	649.0	0.08792248	1.0471954	-0.069781214	-0.040332038	0.0	0.0
21.05911341821775	582.0	647.0	0.08792248	1.0471954	-0.069781214	-0.040332038	0.0	0.0
21.07358321128413	580.0	645.0	0.08841077	1.0471954	-0.069781214	-0.040332038	0.0	0.0
21.093360582366586	577.0	644.0	0.08987564	1.0471954	-0.03487356	-0.0201398	0.0	0.0
21.10873002326116	573.0	642.0	0.09182879	1.0471954	-0.0	0.0	0.0	0.0
21.124954869039357	571.0	640.0	0.09231708	1.0471954	-0.0	0.0	0.0	0.0
21.14203233132139	568.0	639.0	0.09280537	1.0471954	-0.0	0.0	0.0	0.0
21.15888955630362	564.0	637.0	0.09280537	1.0471954	-0.0	0.0	0.0	0.0
21.17590455710888	561.0	635.0	0.09280537	1.0471954	0.03490765	0.020159498	0.0	0.0
21.19210864137858	559.0	633.0	0.09329366	1.0471954	0.03490765	0.020159498	0.0	0.0
21.208258132450283	555.0	629.0	0.09329366	1.0471954	0.0698153	0.040351782	0.0	0.0
21.226191531401128	553.0	627.0	0.09378195	1.0471954	0.0698153	0.040351782	0.0	0.0
21.24046421330422	549.0	623.0	0.09427024	1.0471954	0.0698153	0.040351782	0.0	0.0
21.258049835450947	548.0	621.0	0.09427024	1.0471954	0.0698153	0.040351782	0.0	0.0
21.274340901058167	545.0	617.0	0.095246814	1.0471954	0.0698153	0.040351782	0.0	0.0
21.29117650911212	543.0	614.0	0.09719997	1.0471954	0.0698153	0.040351782	0.0	0.0
21.309508582111448	541.0	608.0	0.1001297	1.0471954	0.10472295	0.06060979	0.0	0.0
21.324380652047694	540.0	604.0	0.106477454	1.0471954	0.10472295	0.06060979	0.0	0.0
21.342027171049267	540.0	599.0	0.11575494	1.0471954	0.1396306	0.0809668	0.0	0.0
21.35907550342381	539.0	591.0	0.11673152	1.0471954	0.17453825	0.101456545	0.0	0.0
21.37552428804338	539.0	586.0	0.117219806	1.0471954	0.17453825	0.101456545	0.0	0.0
21.392339148093015	539.0	582.0	0.117708094	1.0471954	0.2094459	0.12211342	0.0	0.0
21.408782579004765	539.0	574.0	0.117708094	1.0471954	0.24435355	0.14297265	0.0	0.0
21.42507993709296	540.0	569.0	0.117708094	1.0471954	0.24435355	0.14297265	0.0	0.0
21.441227863077074	541.0	563.0	0.11673152	1.0471954	0.2792612	0.16407043	0.0	0.0
21.45821427833289	542.0	556.0	0.11477836	1.0471954	0.31416884	0.18544407	0.0	0.0
21.474749241024256	546.0	546.0	0.065918975	1.0471954	0.3490765	0.20713232	0.0	0.0
Pause
21.857887782156467	542.0	559.0	0.036621653	1.0471954	0.45379946	0.2744953	0.0	0.0
21.873521318193525	542.0	557.0	0.043457694	1.0471954	0.4188918	0.25161505	0.0	0.0
21.89108259510249	542.0	555.0	0.053711757	1.0471954	0.4188918	0.25161505	0.0	0.0
21.909895392134786	543.0	552.0	0.05957122	1.0471954	0.4188918	0.25161505	0.0	0.0
21.923781236167997	544.0	548.0	0.06347753	1.0471954	0.38398415	0.22917534	0.0	0.0
21.942076592240483	545.0	545.0	0.07083238	1.0471954	0.38398415	0.22917534	0.0	0.0
21.958556661382318	546.0	542.0	0.07913329	1.0471954	0.38398415	0.22917534	0.0	0.0
21.975593651179224	547.0	538.0	0.084016174	1.0471954	0.4188918	0.25161505	0.0	0.0
21.992059340234846	549.0	532.0	0.08938735	1.0471954	0.45379946	0.2744953	0.0	0.0
22.00969853112474	550.0	528.0	0.094758525	1.0471954	0.4887071	0.2978619	0.0	0.0
22.026048029307276	552.0	521.0	0.09622339	1.0471954	0.52361476	0.3217631	0.0	0.0
22.0420970832929	553.0	517.0	0.09671168	1.0471954	0.5585224	0.3462494	0.0	0.0
22.05855843704194	555.0	512.0	0.09671168	1.0471954	0.59343004	0.37137407	0.0	0.0
22.073509628418833	559.0	504.0	0.09622339	1.0471954	0.59343004	0.37137407	0.0	0.0
22.093293217010796	560.0	501.0	0.09378195	1.0471954	0.6283377	0.39719307	0.0	0.0
22.10722828703001	563.0	497.0	0.068390936	1.0471954	0.6283377	0.39719307	0.0	0.0
Pause
22.358085060026497	557.0	503.0	0.06396582	1.0471954	0.698153	0.45115286	0.0	0.0
22.37505677016452	560.0	497.0	0.07718013	1.0471954	0.698153	0.45115286	0.0	0.0
22.391817259136587	563.0	493.0	0.07913329	1.0471954	0.698153	0.45115286	0.0	0.0
22.40879439841956	567.0	486.0	0.079621576	1.0471954	0.698153	0.45115286	0.0	0.0
22.42385444138199	571.0	481.0	0.078645	1.0471954	0.698153	0.45115286	0.0	0.0
22.441427308134735	574.0	477.0	0.07376211	1.0471954	0.698153	0.45115286	0.0	0.0
22.457288628444076	579.0	472.0	0.050782025	1.0471954	0.73306066	0.47942045	0.0	0.0
Pause
22.626973601989448	571.0	485.0	0.06790265	1.0471954	0.698153	0.45115286	0.0	0.0
22.64206985803321	574.0	480.0	0.07180896	1.0471954	0.698153	0.45115286	0.0	0.0
22.657919062301517	577.0	476.0	0.0742504	1.0471954	0.698153	0.45115286	0.0	0.0
22.674582029227167	580.0	472.0	0.0742504	1.0471954	0.73306066	0.47942045	0.0	0.0
22.690816840156913	584.0	468.0	0.07327382	1.0471954	0.73306066	0.47942045	0.0	0.0
22.709104551002383	590.0	464.0	0.06741436	1.0471954	0.7679683	0.5086362	0.0	0.0
22.72499568015337	593.0	462.0	0.025391012	1.0471954	0.80287594	0.53887093	0.0	0.0
