time	x	y	pressure	tiltX	tiltY	azimuth	sidePressure	rotation
97.97314126812853	383.0	298.0	0.031250477	1.0471954	0.5585224	0.3462494	0.0	0.0
98.02937359013595	391.0	323.0	0.04150454	1.0471954	0.4887071	0.2978619	0.0	0.0
98.04589241696522	393.0	327.0	0.04150454	1.0471954	0.4887071	0.2978619	0.0	0.0
98.0639064530842	395.0	336.0	0.05664149	1.0471954	0.45379946	0.2744953	0.0	0.0
98.08056606305763	399.0	351.0	0.06640726	1.0471954	0.45379946	0.2744953	0.0	0.0
98.09637853805907	402.0	362.0	0.07180896	1.0471954	0.4188918	0.25161505	0.0	0.0
98.11392901092768	406.0	380.0	0.07180896	1.0471954	0.4188918	0.25161505	0.0	0.0
98.1306048380211	409.0	393.0	0.072297245	1.0471954	0.38398415	0.22917534	0.0	0.0
98.14716403512284	412.0	407.0	0.072785534	1.0471954	0.38398415	0.22917534	0.0	0.0
98.1642627499532	415.0	422.0	0.07522698	1.0471954	0.3490765	0.20713232	0.0	0.0
98.18066070508212	418.0	447.0	0.080109864	1.0471954	0.31416884	0.18544407	0.0	0.0
98.19722288311459	420.0	464.0	0.08548104	1.0471954	0.2792612	0.16407043	0.0	0.0
98.21398439793848	422.0	482.0	0.09231708	1.0471954	0.24435355	0.14297265	0.0	0.0
98.23027882212773	425.0	510.0	0.094758525	1.0471954	0.24435355	0.14297265	0.0	0.0
98.24627574812621	427.0	529.0	0.0957351	1.0471954	0.2094459	0.12211342	0.0	0.0
98.26270070299506	429.0	549.0	0.09817655	1.0471954	0.17453825	0.101456545	0.0	0.0
98.28125618607737	431.0	579.0	0.10110628	1.0471954	0.1396306	0.0809668	0.0	0.0
98.29736077506095	433.0	601.0	0.10403601	1.0471954	0.1396306	0.0809668	0.0	0.0
98.31403788994066	434.0	622.0	0.10501259	1.0471954	0.10472295	0.06060979	0.0	0.0
98.33073178911582	437.0	655.0	0.10550088	1.0471954	0.0698153	0.040351782	0.0	0.0
98.34638015902601	438.0	678.0	0.10550088	1.0471954	0.0698153	0.040351782	0.0	0.0
98.36415635002777	439.0	701.0	0.10501259	1.0471954	-0.0	0.0	0.0	0.0
98.38083087094128	441.0	737.0	0.105989166	1.0471954	-0.0	0.0	0.0	0.0
98.39712699293159	442.0	762.0	0.10696574	1.0471954	-0.0	0.0	0.0	0.0
98.41408823011443	443.0	789.0	0.10745403	1.0471954	-0.069781214	-0.040332038	0.0	0.0
98.43102983897552	444.0	831.0	0.10745403	1.0471954	-0.1395965	-0.080946855	0.0	0.0
98.44727977807634	445.0	859.0	0.10696574	1.0471954	-0.17450416	-0.10143646	0.0	0.0
98.46420728811063	445.0	888.0	0.10745403	1.0471954	-0.24431947	-0.14295217	0.0	0.0
98.4809085240122	444.0	932.0	0.1089189	1.0471954	-0.2792271	-0.16404969	0.0	0.0
98.49731998797506	444.0	962.0	0.110383764	1.0471954	-0.2792271	-0.16404969	0.0	0.0
98.51313569606282	443.0	990.0	0.11087205	1.0471954	-0.34904242	-0.20711097	0.0	0.0
98.53030196810141	442.0	1031.0	0.110383764	1.0471954	-0.34904242	-0.20711097	0.0	0.0
98.5472853819374	441.0	1054.0	0.110383764	1.0471954	-0.38395005	-0.22915362	0.0	0.0
98.56382723106071	441.0	1075.0	0.10843061	1.0471954	-0.45376536	-0.2744727	0.0	0.0
98.5809997820761	442.0	1102.0	0.09622339	1.0471954	-0.5235807	-0.32173946	0.0	0.0
98.59736645105295	442.0	1115.0	0.07913329	1.0471954	-0.59339595	-0.3713492	0.0	0.0
98.61341164493933	443.0	1123.0	0.04882887	1.0471954	-0.73302656	-0.4793924	0.0	0.0
Pause
100.11306449095719	586.0	1197.0	0.078645	1.0471954	-0.59339595	-0.3713492	0.0	0.0
100.13236084813252	586.0	1197.0	0.10159457	1.0471954	-0.6283036	-0.3971675	0.0	0.0
100.14648561109789	586.0	1198.0	0.105989166	1.0471954	-0.6283036	-0.3971675	0.0	0.0
100.16293252701871	586.0	1197.0	0.10403601	1.0471954	-0.6283036	-0.3971675	0.0	0.0
100.17930920911022	586.0	1197.0	0.10305943	1.0471954	-0.6283036	-0.3971675	0.0	0.0
100.19639746798202	586.0	1195.0	0.10305943	1.0471954	-0.59339595	-0.3713492	0.0	0.0
100.21263538813218	586.0	1193.0	0.10159457	1.0471954	-0.59339595	-0.3713492	0.0	0.0
100.23222270002589	586.0	1191.0	0.10354772	1.0471954	-0.5584883	-0.34622517	0.0	0.0
100.2479861669708	586.0	1186.0	0.1045243	1.0471954	-0.5235807	-0.32173946	0.0	0.0
100.26337540103123	586.0	1183.0	0.10550088	1.0471954	-0.5584883	-0.34622517	0.0	0.0
100.28234049398452	586.0	1179.0	0.105989166	1.0471954	-0.6283036	-0.3971675	0.0	0.0
100.29801781405695	586.0	1171.0	0.106477454	1.0471954	-0.6632113	-0.42373908	0.0	0.0
100.31257953005843	586.0	1164.0	0.10696574	1.0471954	-0.6981189	-0.4511257	0.0	0.0
100.33240240998566	585.0	1155.0	0.10696574	1.0471954	-0.8726572	-0.6026622	0.0	0.0
100.34799852804281	583.0	1139.0	0.10745403	1.0471954	-0.94247246	-0.67146987	0.0	0.0
100.36337831895798	582.0	1126.0	0.10794232	1.0471954	-1.0122877	-0.74589145	0.0	0.0
100.38031962001696	581.0	1111.0	0.1089189	1.0471954	-1.0471954	-0.7853982	0.0	0.0
100.39837397099473	579.0	1091.0	0.109895475	1.0471954	-1.0471954	-0.7853982	0.0	0.0
100.41336891101673	577.0	1076.0	0.109895475	1.0471954	-1.0122877	-0.74589145	0.0	0.0
100.4289707110729	575.0	1061.0	0.110383764	1.0471954	-1.0122877	-0.74589145	0.0	0.0
100.44638338405639	572.0	1044.0	0.110383764	1.0471954	-0.9075648	-0.6364035	0.0	0.0
100.46440867800266	566.0	1018.0	0.11136034	1.0471954	-0.8726572	-0.6026622	0.0	0.0
100.47991558699869	563.0	1003.0	0.11477836	1.0471954	-0.83774954	-0.5701673	0.0	0.0
100.49639563704841	559.0	987.0	0.11917296	1.0471954	-0.80284184	-0.5388409	0.0	0.0
100.5144600989297	552.0	962.0	0.12259098	1.0471954	-0.7679342	-0.50860715	0.0	0.0
100.52954592206515	548.0	944.0	0.124544136	1.0471954	-0.73302656	-0.4793924	0.0	0.0
100.54878923413344	544.0	925.0	0.12552072	1.0471954	-0.73302656	-0.4793924	0.0	0.0
100.56443003797904	538.0	897.0	0.126009	1.0471954	-0.73302656	-0.4793924	0.0	0.0
100.58162852795795	534.0	878.0	0.126009	1.0471954	-0.73302656	-0.4793924	0.0	0.0
100.59873769595288	529.0	849.0	0.126009	1.0471954	-0.73302656	-0.4793924	0.0	0.0
100.61438352009282	527.0	829.0	0.126009	1.0471954	-0.6981189	-0.4511257	0.0	0.0
100.62988703814335	524.0	808.0	0.1264973	1.0471954	-0.6981189	-0.4511257	0.0	0.0
100.64912556414492	523.0	787.0	0.1264973	1.0471954	-0.6632113	-0.42373908	0.0	0.0
100.66437807492912	520.0	756.0	0.12747388	1.0471954	-0.6632113	-0.42373908	0.0	0.0
100.68025808711536	520.0	735.0	0.12747388	1.0471954	-0.6283036	-0.3971675	0.0	0.0
100.69947623414919	519.0	715.0	0.12747388	1.0471954	-0.59339595	-0.3713492	0.0	0.0
100.71533959801309	520.0	682.0	0.12747388	1.0471954	-0.5235807	-0.32173946	0.0	0.0
100.72994981193915	521.0	660.0	0.12747388	1.0471954	-0.488673	-0.29783884	0.0	0.0
100.74841245496646	523.0	638.0	0.12747388	1.0471954	-0.41885772	-0.25159296	0.0	0.0
100.76536290394142	527.0	604.0	0.12796216	1.0471954	-0.38395005	-0.22915362	0.0	0.0
100.77996282395907	530.0	582.0	0.12942703	1.0471954	-0.34904242	-0.20711097	0.0	0.0
100.79640780598857	534.0	561.0	0.13040361	1.0471954	-0.2792271	-0.16404969	0.0	0.0
100.81539601413533	541.0	531.0	0.13089189	1.0471954	-0.20941181	-0.12209316	0.0	0.0
100.82939071115106	547.0	512.0	0.13089189	1.0471954	-0.17450416	-0.10143646	0.0	0.0
100.84572329209186	554.0	494.0	0.13089189	1.0471954	-0.10468886	-0.060589965	0.0	0.0
100.86439524404705	562.0	478.0	0.13089189	1.0471954	-0.03487356	-0.0201398	0.0	0.0
100.88044576812536	575.0	453.0	0.13040361	1.0471954	-0.0	0.0	0.0	0.0
100.89566787006333	585.0	438.0	0.13040361	1.0471954	0.03490765	0.020159498	0.0	0.0
100.91288992995396	596.0	423.0	0.121614404	1.0471954	0.10472295	0.06060979	0.0	0.0
100.93047032412142	612.0	404.0	0.10696574	1.0471954	0.17453825	0.101456545	0.0	0.0
100.94626763509586	622.0	394.0	0.028809033	1.0471954	0.2792612	0.16407043	0.0	0.0
Pause
105.64644642500207	432.0	819.0	0.047364004	1.0471954	-0.20941181	-0.12209316	0.0	0.0
105.66322611202486	435.0	824.0	0.054200046	1.0471954	-0.20941181	-0.12209316	0.0	0.0
105.68018634803593	438.0	828.0	0.061036088	1.0471954	-0.24431947	-0.14295217	0.0	0.0
105.69628316909075	442.0	834.0	0.07083238	1.0471954	-0.2792271	-0.16404969	0.0	0.0
105.71299220900983	448.0	843.0	0.07376211	1.0471954	-0.31413478	-0.18542306	0.0	0.0
105.7296450510621	453.0	850.0	0.0742504	1.0471954	-0.34904242	-0.20711097	0.0	0.0
105.7463055930566	458.0	858.0	0.07718013	1.0471954	-0.38395005	-0.22915362	0.0	0.0
105.76303251599893	466.0	870.0	0.08499275	1.0471954	-0.41885772	-0.25159296	0.0	0.0
105.77965424302965	471.0	878.0	0.09182879	1.0471954	-0.45376536	-0.2744727	0.0	0.0
105.79597261315212	477.0	888.0	0.09964141	1.0471954	-0.488673	-0.29783884	0.0	0.0
105.81326730805449	484.0	904.0	0.1001297	1.0471954	-0.5235807	-0.32173946	0.0	0.0
105.82968210009858	489.0	914.0	0.10110628	1.0471954	-0.5584883	-0.34622517	0.0	0.0
105.8462055590935	493.0	926.0	0.10110628	1.0471954	-0.59339595	-0.3713492	0.0	0.0
105.86262545594946	499.0	943.0	0.10110628	1.0471954	-0.59339595	-0.3713492	0.0	0.0
105.87987801805139	504.0	954.0	0.10159457	1.0471954	-0.59339595	-0.3713492	0.0	0.0
105.89605852402747	508.0	964.0	0.10159457	1.0471954	-0.6283036	-0.3971675	0.0	0.0
105.91330600413494	515.0	980.0	0.10159457	1.0471954	-0.6283036	-0.3971675	0.0	0.0
105.92983441497199	519.0	991.0	0.10159457	1.0471954	-0.6283036	-0.3971675	0.0	0.0
105.9461391500663	524.0	1002.0	0.10159457	1.0471954	-0.6283036	-0.3971675	0.0	0.0
105.96358855301514	528.0	1014.0	0.10159457	1.0471954	-0.59339595	-0.3713492	0.0	0.0
105.98015739000402	535.0	1032.0	0.10159457	1.0471954	-0.59339595	-0.3713492	0.0	0.0
105.99585104500875	539.0	1043.0	0.10110628	1.0471954	-0.59339595	-0.3713492	0.0	0.0
106.01322975405492	543.0	1054.0	0.10110628	1.0471954	-0.59339595	-0.3713492	0.0	0.0
106.02991566900164	548.0	1073.0	0.1001297	1.0471954	-0.6283036	-0.3971675	0.0	0.0
106.0459461431019	552.0	1086.0	0.1001297	1.0471954	-0.6632113	-0.42373908	0.0	0.0
106.06327820010483	556.0	1099.0	0.1001297	1.0471954	-0.6981189	-0.4511257	0.0	0.0
106.07984635210596	560.0	1116.0	0.1001297	1.0471954	-0.7679342	-0.50860715	0.0	0.0
106.0961484760046	563.0	1126.0	0.1001297	1.0471954	-0.83774954	-0.5701673	0.0	0.0
106.11343680811115	565.0	1137.0	0.09768826	1.0471954	-0.9075648	-0.6364035	0.0	0.0
106.13001511595212	570.0	1155.0	0.08987564	1.0471954	-0.94247246	-0.67146987	0.0	0.0
106.146197573049	573.0	1166.0	0.08450446	1.0471954	-0.94247246	-0.67146987	0.0	0.0
106.16663896013051	576.0	1176.0	0.07669184	1.0471954	-0.9075648	-0.6364035	0.0	0.0
106.18056276114658	579.0	1191.0	0.051758602	1.0471954	-0.8726572	-0.6026622	0.0	0.0
Pause
109.86284481198527	418.0	506.0	0.07034409	1.0471954	-0.9075648	-0.6364035	0.0	0.0
109.88004286005162	418.0	506.0	0.07132067	1.0471954	-0.9075648	-0.6364035	0.0	0.0
109.89922690112144	418.0	505.0	0.072297245	1.0471954	-0.9075648	-0.6364035	0.0	0.0
109.9158683330752	417.0	504.0	0.072785534	1.0471954	-0.9075648	-0.6364035	0.0	0.0
109.93006635014899	416.0	502.0	0.07327382	1.0471954	-0.9075648	-0.6364035	0.0	0.0
109.94946612603962	415.0	499.0	0.07522698	1.0471954	-0.9075648	-0.6364035	0.0	0.0
109.9648938360624	414.0	494.0	0.07718013	1.0471954	-0.8726572	-0.6026622	0.0	0.0
109.97947999695316	413.0	491.0	0.084016174	1.0471954	-0.8726572	-0.6026622	0.0	0.0
109.99917159206234	412.0	487.0	0.091340505	1.0471954	-0.83774954	-0.5701673	0.0	0.0
110.01582570909522	409.0	482.0	0.09329366	1.0471954	-0.83774954	-0.5701673	0.0	0.0
110.03006604406983	408.0	478.0	0.094758525	1.0471954	-0.83774954	-0.5701673	0.0	0.0
110.04675832996145	406.0	473.0	0.0957351	1.0471954	-0.80284184	-0.5388409	0.0	0.0
110.06583272805437	403.0	465.0	0.0957351	1.0471954	-0.80284184	-0.5388409	0.0	0.0
110.08085258700885	400.0	459.0	0.09622339	1.0471954	-0.7679342	-0.50860715	0.0	0.0
110.09629127406515	397.0	454.0	0.09622339	1.0471954	-0.73302656	-0.4793924	0.0	0.0
110.11483497614972	394.0	448.0	0.09671168	1.0471954	-0.73302656	-0.4793924	0.0	0.0
110.13082205201499	389.0	440.0	0.09671168	1.0471954	-0.6981189	-0.4511257	0.0	0.0
110.14680100395344	386.0	434.0	0.09671168	1.0471954	-0.6981189	-0.4511257	0.0	0.0
110.16482775611803	383.0	428.0	0.09719997	1.0471954	-0.6632113	-0.42373908	0.0	0.0
110.18083173595369	379.0	419.0	0.09768826	1.0471954	-0.6632113	-0.42373908	0.0	0.0
110.19927974813618	376.0	412.0	0.098664835	1.0471954	-0.6283036	-0.3971675	0.0	0.0
110.21487993607298	373.0	402.0	0.098664835	1.0471954	-0.6283036	-0.3971675	0.0	0.0
110.23295650514774	372.0	394.0	0.099153124	1.0471954	-0.59339595	-0.3713492	0.0	0.0
110.24639991810545	370.0	382.0	0.099153124	1.0471954	-0.59339595	-0.3713492	0.0	0.0
110.26684109214693	369.0	378.0	0.1001297	1.0471954	-0.59339595	-0.3713492	0.0	0.0
110.28087476198561	368.0	365.0	0.10354772	1.0471954	-0.5584883	-0.34622517	0.0	0.0
110.29878745204769	367.0	357.0	0.11087205	1.0471954	-0.5584883	-0.34622517	0.0	0.0
110.3158175649587	366.0	344.0	0.113313496	1.0471954	-0.5235807	-0.32173946	0.0	0.0
110.33267682907172	365.0	335.0	0.11429007	1.0471954	-0.5235807	-0.32173946	0.0	0.0
110.3470370490104	365.0	325.0	0.11477836	1.0471954	-0.5235807	-0.32173946	0.0	0.0
110.36633921205066	364.0	316.0	0.11526665	1.0471954	-0.488673	-0.29783884	0.0	0.0
110.38184166513383	363.0	304.0	0.11575494	1.0471954	-0.488673	-0.29783884	0.0	0.0
110.3967831779737	362.0	295.0	0.11673152	1.0471954	-0.488673	-0.29783884	0.0	0.0
110.41484984499402	361.0	286.0	0.11819638	1.0471954	-0.488673	-0.29783884	0.0	0.0
110.43184784194455	359.0	272.0	0.11966125	1.0471954	-0.45376536	-0.2744727	0.0	0.0
110.44639033009298	358.0	264.0	0.12014954	1.0471954	-0.45376536	-0.2744727	0.0	0.0
110.46485318196937	357.0	256.0	0.121126115	1.0471954	-0.41885772	-0.25159296	0.0	0.0
110.48194381408393	354.0	245.0	0.121126115	1.0471954	-0.41885772	-0.25159296	0.0	0.0
110.49685333506204	352.0	238.0	0.12063783	1.0471954	-0.38395005	-0.22915362	0.0	0.0
110.5132259761449	350.0	232.0	0.12063783	1.0471954	-0.38395005	-0.22915362	0.0	0.0
110.53087076894008	347.0	224.0	0.12014954	1.0471954	-0.34904242	-0.20711097	0.0	0.0
110.5468407520093	346.0	219.0	0.11868467	1.0471954	-0.34904242	-0.20711097	0.0	0.0
110.56328154611401	345.0	216.0	0.11087205	1.0471954	-0.34904242	-0.20711097	0.0	0.0
110.58084836811759	344.0	213.0	0.09964141	1.0471954	-0.31413478	-0.18542306	0.0	0.0
110.59684848901816	344.0	213.0	0.079621576	1.0471954	-0.31413478	-0.18542306	0.0	0.0
110.61632933211513	344.0	213.0	0.072297245	1.0471954	-0.31413478	-0.18542306	0.0	0.0
110.63176892208867	345.0	214.0	0.068390936	1.0471954	-0.31413478	-0.18542306	0.0	0.0
110.64685945096426	347.0	215.0	0.068390936	1.0471954	-0.31413478	-0.18542306	0.0	0.0
110.666301822057	349.0	218.0	0.0698558	1.0471954	-0.31413478	-0.18542306	0.0	0.0
110.68194670509547	354.0	224.0	0.07083238	1.0471954	-0.31413478	-0.18542306	0.0	0.0
110.69688687194139	357.0	228.0	0.07327382	1.0471954	-0.31413478	-0.18542306	0.0	0.0
110.71479331911542	360.0	233.0	0.07815671	1.0471954	-0.31413478	-0.18542306	0.0	0.0
110.73285172204487	366.0	241.0	0.08108644	1.0471954	-0.34904242	-0.20711097	0.0	0.0
110.74786750902422	370.0	247.0	0.08499275	1.0471954	-0.34904242	-0.20711097	0.0	0.0
110.76330193714239	374.0	253.0	0.09280537	1.0471954	-0.34904242	-0.20711097	0.0	0.0
110.78272983897477	379.0	260.0	0.09768826	1.0471954	-0.34904242	-0.20711097	0.0	0.0
110.79789928207174	386.0	270.0	0.1001297	1.0471954	-0.34904242	-0.20711097	0.0	0.0
110.81336465803906	392.0	277.0	0.10354772	1.0471954	-0.34904242	-0.20711097	0.0	0.0
110.83086041500792	397.0	284.0	0.10696574	1.0471954	-0.34904242	-0.20711097	0.0	0.0
110.84785464196466	404.0	295.0	0.10794232	1.0471954	-0.34904242	-0.20711097	0.0	0.0
110.86289855907671	408.0	303.0	0.10940719	1.0471954	-0.34904242	-0.20711097	0.0	0.0
110.88358691404574	411.0	311.0	0.109895475	1.0471954	-0.31413478	-0.18542306	0.0	0.0
110.89786174497567	416.0	326.0	0.110383764	1.0471954	-0.31413478	-0.18542306	0.0	0.0
110.9134495491162	419.0	336.0	0.113801785	1.0471954	-0.31413478	-0.18542306	0.0	0.0
110.92970284912735	422.0	347.0	0.11575494	1.0471954	-0.31413478	-0.18542306	0.0	0.0
110.94687123503536	427.0	364.0	0.11624323	1.0471954	-0.31413478	-0.18542306	0.0	0.0
110.96310070203617	430.0	375.0	0.11624323	1.0471954	-0.31413478	-0.18542306	0.0	0.0
110.97982014901936	433.0	387.0	0.11575494	1.0471954	-0.34904242	-0.20711097	0.0	0.0
110.99888881808147	437.0	405.0	0.11477836	1.0471954	-0.34904242	-0.20711097	0.0	0.0
111.01342895394191	439.0	419.0	0.113313496	1.0471954	-0.34904242	-0.20711097	0.0	0.0
111.03286228515208	441.0	433.0	0.10745403	1.0471954	-0.41885772	-0.25159296	0.0	0.0
111.04875927511603	441.0	454.0	0.099153124	1.0471954	-0.45376536	-0.2744727	0.0	0.0
111.0660601889249	440.0	468.0	0.072297245	1.0471954	-0.488673	-0.29783884	0.0	0.0
111.08194093196653	437.0	489.0	0.054688334	1.0471954	-0.5235807	-0.32173946	0.0	0.0
111.09887861204334	434.0	503.0	0.017578393	1.0471954	-0.5235807	-0.32173946	0.0	0.0
Pause
113.5149878449738	641.0	505.0	0.04931716	1.0471954	-0.94247246	-0.67146987	0.0	0.0
113.5299718871247	641.0	504.0	0.057618067	1.0471954	-0.94247246	-0.67146987	0.0	0.0
113.54891911800951	640.0	503.0	0.07083238	1.0471954	-0.94247246	-0.67146987	0.0	0.0
113.56300039798953	639.0	500.0	0.07473869	1.0471954	-0.9075648	-0.6364035	0.0	0.0
113.58015944692306	639.0	497.0	0.076203555	1.0471954	-0.9075648	-0.6364035	0.0	0.0
113.59656950994395	639.0	493.0	0.07766842	1.0471954	-0.8726572	-0.6026622	0.0	0.0
113.61585614806972	638.0	488.0	0.079621576	1.0471954	-0.8726572	-0.6026622	0.0	0.0
113.63100727507845	637.0	484.0	0.083527885	1.0471954	-0.8726572	-0.6026622	0.0	0.0
113.6462998460047	636.0	480.0	0.08938735	1.0471954	-0.8726572	-0.6026622	0.0	0.0
113.6659984709695	635.0	476.0	0.091340505	1.0471954	-0.8726572	-0.6026622	0.0	0.0
113.68041289504617	632.0	470.0	0.09378195	1.0471954	-0.8726572	-0.6026622	0.0	0.0
113.6990082920529	630.0	465.0	0.09671168	1.0471954	-0.8726572	-0.6026622	0.0	0.0
113.71477923099883	626.0	457.0	0.099153124	1.0471954	-0.8726572	-0.6026622	0.0	0.0
113.73037761310115	623.0	452.0	0.10061799	1.0471954	-0.8726572	-0.6026622	0.0	0.0
113.74650991498493	619.0	447.0	0.102082856	1.0471954	-0.83774954	-0.5701673	0.0	0.0
113.76696601114236	615.0	442.0	0.10305943	1.0471954	-0.83774954	-0.5701673	0.0	0.0
113.78099693101831	609.0	435.0	0.10403601	1.0471954	-0.80284184	-0.5388409	0.0	0.0
113.79636626597494	605.0	429.0	0.1045243	1.0471954	-0.80284184	-0.5388409	0.0	0.0
113.81502555101179	600.0	424.0	0.10501259	1.0471954	-0.7679342	-0.50860715	0.0	0.0
113.83102445607074	592.0	415.0	0.10550088	1.0471954	-0.7679342	-0.50860715	0.0	0.0
113.84625305910595	587.0	408.0	0.10550088	1.0471954	-0.7679342	-0.50860715	0.0	0.0
113.8650361681357	583.0	402.0	0.10550088	1.0471954	-0.7679342	-0.50860715	0.0	0.0
113.88200596510433	576.0	393.0	0.10550088	1.0471954	-0.7679342	-0.50860715	0.0	0.0
113.89644575794227	572.0	386.0	0.10550088	1.0471954	-0.7679342	-0.50860715	0.0	0.0
113.9169573939871	567.0	379.0	0.105989166	1.0471954	-0.73302656	-0.4793924	0.0	0.0
113.93103017797694	561.0	368.0	0.105989166	1.0471954	-0.73302656	-0.4793924	0.0	0.0
113.94623187812977	556.0	361.0	0.105989166	1.0471954	-0.73302656	-0.4793924	0.0	0.0
113.96368985809386	551.0	354.0	0.105989166	1.0471954	-0.73302656	-0.4793924	0.0	0.0
113.98102340009063	544.0	343.0	0.105989166	1.0471954	-0.73302656	-0.4793924	0.0	0.0
113.99619382200763	540.0	336.0	0.105989166	1.0471954	-0.73302656	-0.4793924	0.0	0.0
114.01360087096691	536.0	328.0	0.105989166	1.0471954	-0.6981189	-0.4511257	0.0	0.0
114.03198664495721	530.0	317.0	0.105989166	1.0471954	-0.6981189	-0.4511257	0.0	0.0
114.04706147499382	526.0	309.0	0.105989166	1.0471954	-0.6981189	-0.4511257	0.0	0.0
114.06352784112096	523.0	301.0	0.105989166	1.0471954	-0.6981189	-0.4511257	0.0	0.0
114.08201729203574	519.0	289.0	0.105989166	1.0471954	-0.6981189	-0.4511257	0.0	0.0
114.09648061497137	517.0	281.0	0.10550088	1.0471954	-0.6981189	-0.4511257	0.0	0.0
114.11505957692862	515.0	273.0	0.10501259	1.0471954	-0.6632113	-0.42373908	0.0	0.0
114.13288383092731	513.0	262.0	0.10403601	1.0471954	-0.6632113	-0.42373908	0.0	0.0
114.1470225949306	513.0	255.0	0.10305943	1.0471954	-0.6283036	-0.3971675	0.0	0.0
114.16322814393789	512.0	249.0	0.1001297	1.0471954	-0.59339595	-0.3713492	0.0	0.0
114.17984256497584	511.0	244.0	0.09182879	1.0471954	-0.59339595	-0.3713492	0.0	0.0
114.19702921202406	510.0	238.0	0.08255131	1.0471954	-0.59339595	-0.3713492	0.0	0.0
114.2134169631172	509.0	235.0	0.07718013	1.0471954	-0.59339595	-0.3713492	0.0	0.0
114.23278806102462	509.0	235.0	0.07522698	1.0471954	-0.59339595	-0.3713492	0.0	0.0
114.24703087494709	509.0	234.0	0.07180896	1.0471954	-0.59339595	-0.3713492	0.0	0.0
