time	x	y	pressure	tiltX	tiltY	azimuth	sidePressure	rotation
5.535194447002141	780.0	920.0	0.04199283	-0.2094459	1.0472295	1.6929002	0.0	0.0
5.594629908009665	757.0	915.0	0.06640726	-0.24435355	1.0472295	1.7137579	0.0	0.0
5.6120525900041685	753.0	915.0	0.06692607	-0.24435355	1.0472295	1.7137579	0.0	0.0
5.628498541002045	740.0	914.0	0.06741436	-0.2094459	1.0472295	1.6929002	0.0	0.0
5.6454063990095165	729.0	914.0	0.06741436	-0.2094459	1.0472295	1.6929002	0.0	0.0
5.664179037004942	718.0	914.0	0.06692607	-0.17453825	1.0472295	1.6722449	0.0	0.0
5.680253158003325	698.0	914.0	0.065430686	-0.17453825	1.0472295	1.6722449	0.0	0.0
5.6952419110020855	684.0	914.0	0.0649424	-0.1396306	1.0472295	1.6517568	0.0	0.0
5.713671567005804	669.0	914.0	0.06445411	-0.10472295	1.0472295	1.6314013	0.0	0.0
5.7292419410077855	645.0	915.0	0.06396582	-0.0698153	1.0472295	1.6111449	0.0	0.0
5.745210691005923	628.0	916.0	0.06396582	-0.03490765	1.0472295	1.5909542	0.0	0.0
5.763712890009629	611.0	917.0	0.06250095	0.0	1.0472295	1.5707964	0.0	0.0
5.78027030400699	584.0	918.0	0.059082933	0.0	1.0472295	1.5707964	0.0	0.0
5.795270115006133	567.0	919.0	0.058594644	0.0	1.0472295	1.5707964	0.0	0.0
5.8141998990031425	549.0	919.0	0.06005951	0.03487356	1.0472295	1.5506581	0.0	0.0
5.830453688002308	522.0	920.0	0.06396582	0.069781214	1.0472295	1.5304675	0.0	0.0
5.845641250009066	504.0	920.0	0.072297245	0.069781214	1.0472295	1.5304675	0.0	0.0
5.863576422998449	486.0	920.0	0.08499275	0.10468886	1.0472295	1.5102111	0.0	0.0
5.880486381007358	459.0	919.0	0.08645762	0.1395965	1.0472295	1.4898558	0.0	0.0
5.896864102003747	441.0	919.0	0.08645762	0.17450416	1.0472295	1.4693677	0.0	0.0
5.913846738010761	423.0	920.0	0.08548104	0.20941181	1.0472295	1.4487127	0.0	0.0
5.930417067007511	397.0	920.0	0.084016174	0.24431947	1.0472295	1.4278553	0.0	0.0
5.946260954005993	380.0	921.0	0.08206302	0.24431947	1.0472295	1.4278553	0.0	0.0
5.96388299499813	364.0	921.0	0.078645	0.2792271	1.0472295	1.4067594	0.0	0.0
5.9805409780092305	340.0	921.0	0.07766842	0.31413478	1.0472295	1.3853875	0.0	0.0
5.9969800770049915	325.0	922.0	0.07718013	0.31413478	1.0472295	1.3853875	0.0	0.0
6.012716937009827	310.0	922.0	0.07669184	0.34904242	1.0472295	1.3637012	0.0	0.0
6.030619122000644	288.0	923.0	0.065430686	0.34904242	1.0472295	1.3637012	0.0	0.0
6.046850805010763	274.0	923.0	0.03418021	0.34904242	1.0472295	1.3637012	0.0	0.0
Pause
6.312963848002255	161.0	920.0	0.050293736	0.41885772	1.0472295	1.3192223	0.0	0.0
6.328714083996601	161.0	919.0	0.049805447	0.38395005	1.0472295	1.3416601	0.0	0.0
6.3472644810099155	163.0	919.0	0.04834058	0.38395005	1.0472295	1.3416601	0.0	0.0
6.362282180998591	166.0	919.0	0.046875715	0.38395005	1.0472295	1.3416601	0.0	0.0
6.381406756001525	170.0	919.0	0.04443427	0.38395005	1.0472295	1.3416601	0.0	0.0
6.3976299810019555	180.0	919.0	0.043945983	0.38395005	1.0472295	1.3416601	0.0	0.0
6.412367726006778	189.0	918.0	0.04492256	0.38395005	1.0472295	1.3416601	0.0	0.0
6.43096330401022	200.0	918.0	0.050293736	0.38395005	1.0472295	1.3416601	0.0	0.0
6.446524259008584	220.0	917.0	0.053711757	0.38395005	1.0472295	1.3416601	0.0	0.0
6.462967699000728	235.0	916.0	0.0561532	0.38395005	1.0472295	1.3416601	0.0	0.0
6.4786539250053465	252.0	916.0	0.058594644	0.38395005	1.0472295	1.3416601	0.0	0.0
6.498276760001318	279.0	915.0	0.058594644	0.38395005	1.0472295	1.3416601	0.0	0.0
6.512279743998079	299.0	915.0	0.058594644	0.34904242	1.0472295	1.3637012	0.0	0.0
6.53103297999769	319.0	914.0	0.0561532	0.34904242	1.0472295	1.3637012	0.0	0.0
6.547666732003563	350.0	913.0	0.055664912	0.31413478	1.0472295	1.3853875	0.0	0.0
6.563055093996809	370.0	912.0	0.055664912	0.31413478	1.0472295	1.3853875	0.0	0.0
6.579148876000545	390.0	912.0	0.057129778	0.2792271	1.0472295	1.4067594	0.0	0.0
6.5964445840072585	411.0	911.0	0.06005951	0.24431947	1.0472295	1.4278553	0.0	0.0
6.612793560998398	443.0	911.0	0.06347753	0.24431947	1.0472295	1.4278553	0.0	0.0
6.629316917009419	464.0	910.0	0.06640726	0.20941181	1.0472295	1.4487127	0.0	0.0
6.6486011579982005	498.0	910.0	0.068390936	0.17450416	1.0472295	1.4693677	0.0	0.0
6.6632781740045175	521.0	910.0	0.07034409	0.1395965	1.0472295	1.4898558	0.0	0.0
6.678646525004297	543.0	909.0	0.0742504	0.10468886	1.0472295	1.5102111	0.0	0.0
6.6985223189985845	564.0	908.0	0.076203555	0.069781214	1.0472295	1.5304675	0.0	0.0
6.713088118005544	595.0	907.0	0.07669184	0.03487356	1.0472295	1.5506581	0.0	0.0
6.731189800004358	614.0	905.0	0.076203555	0.0	1.0472295	1.5707964	0.0	0.0
6.746775645005982	641.0	904.0	0.07522698	0.0	1.0472295	1.5707964	0.0	0.0
6.764267492006184	659.0	903.0	0.0742504	-0.03490765	1.0472295	1.5909542	0.0	0.0
6.779012254002737	675.0	902.0	0.0742504	-0.0698153	1.0472295	1.6111449	0.0	0.0
6.797941448996426	690.0	901.0	0.072785534	-0.1396306	1.0472295	1.6517568	0.0	0.0
6.814289273999748	710.0	900.0	0.062012665	-0.1396306	1.0472295	1.6517568	0.0	0.0
6.828927756010671	722.0	899.0	0.050293736	-0.17453825	1.0472295	1.6722449	0.0	0.0
6.846137783999438	733.0	898.0	0.040527962	-0.24435355	1.0472295	1.7137579	0.0	0.0
6.864307463998557	746.0	897.0	0.02978561	-0.24435355	1.0472295	1.7137579	0.0	0.0
6.879216561006615	754.0	896.0	0.012695506	-0.2792612	1.0472295	1.7348541	0.0	0.0
Pause
6.978945823007962	781.0	893.0	0.01123064	-0.4188918	1.0472295	1.8223923	0.0	0.0
Pause
7.19808082000236	761.0	910.0	0.05664149	-0.3490765	1.0472295	1.7779129	0.0	0.0
7.214003922010306	760.0	910.0	0.02246128	-0.3490765	1.0472295	1.7779129	0.0	0.0
Pause
7.348198234001757	758.0	910.0	0.106477454	-0.3490765	1.0472295	1.7779129	0.0	0.0
7.364084291999461	758.0	910.0	0.10696574	-0.3490765	1.0472295	1.7779129	0.0	0.0
7.38035937800305	758.0	909.0	0.10501259	-0.31416884	1.0472295	1.7562262	0.0	0.0
7.395153694000328	757.0	909.0	0.08987564	-0.31416884	1.0472295	1.7562262	0.0	0.0
7.415128271008143	755.0	908.0	0.072297245	-0.31416884	1.0472295	1.7562262	0.0	0.0
7.430371003996697	753.0	907.0	0.039551385	-0.31416884	1.0472295	1.7562262	0.0	0.0
Pause
8.529074032005155	142.0	855.0	0.04834058	1.0122877	1.0472295	0.82494414	0.0	0.0
8.546765249004238	142.0	854.0	0.054688334	1.0471954	1.0472295	0.7854375	0.0	0.0
8.563152793998597	142.0	852.0	0.059082933	1.0471954	1.0472295	0.7854375	0.0	0.0
8.579765658010729	142.0	852.0	0.051270314	1.0471954	1.0472295	0.7854375	0.0	0.0
8.59745500900317	142.0	853.0	0.054200046	1.0471954	1.0472295	0.7854375	0.0	0.0
8.614389844005927	142.0	860.0	0.0561532	1.0471954	1.0472295	0.7854375	0.0	0.0
8.630712316997233	142.0	866.0	0.057129778	1.0471954	1.0472295	0.7854375	0.0	0.0
8.647678667010041	143.0	876.0	0.055664912	1.0122877	1.0472295	0.82494414	0.0	0.0
8.664112220998504	144.0	882.0	0.04834058	1.0122877	1.0472295	0.82494414	0.0	0.0
8.680801269001677	146.0	886.0	0.01513695	1.0122877	1.0472295	0.82494414	0.0	0.0
Pause
8.799663370999042	154.0	898.0	0.023926146	0.83774954	1.0472295	1.0006648	0.0	0.0
8.812872613008949	155.0	900.0	0.02636759	0.83774954	1.0472295	1.0006648	0.0	0.0
8.829381711009773	156.0	901.0	0.026855879	0.83774954	1.0472295	1.0006648	0.0	0.0
8.847050948999822	158.0	902.0	0.01855497	0.83774954	1.0472295	1.0006648	0.0	0.0
Pause
9.281418352009496	650.0	914.0	0.0561532	0.6283036	0.8726913	1.0233556	0.0	0.0
9.295392712010653	664.0	914.0	0.045899138	0.6283036	0.8726913	1.0233556	0.0	0.0
9.311980348997167	676.0	914.0	0.023437858	0.59339595	0.8726913	1.0558053	0.0	0.0
9.33023649000097	691.0	915.0	3.0518044E-5	0.5584883	0.8726913	1.0879145	0.0	0.0
Pause
9.495764688006602	752.0	911.0	0.036621653	0.45376536	0.8726913	1.1823729	0.0	0.0
Pause
9.646456570000737	778.0	892.0	0.057129778	0.34904242	1.0123218	1.3471972	0.0	0.0
9.662650519996532	774.0	896.0	0.058106355	0.34904242	0.9774142	1.3300883	0.0	0.0
9.681785834007314	769.0	903.0	0.050293736	0.38395005	0.9774142	1.3047707	0.0	0.0
9.697467486999813	761.0	913.0	0.029297322	0.38395005	0.94250655	1.2853084	0.0	0.0
Pause
Pause
12.428662125006667	412.0	901.0	0.0122072175	1.0471954	0.698153	0.45115286	0.0	0.0
12.44700893999834	412.0	902.0	0.012695506	1.0471954	0.698153	0.45115286	0.0	0.0
12.462162630996318	413.0	903.0	0.01123064	1.0471954	0.6632454	0.42376542	0.0	0.0
Pause
12.682235387997935	438.0	899.0	0.047852293	1.0471954	0.698153	0.45115286	0.0	0.0
12.695799082997837	438.0	898.0	0.046387427	1.0471954	0.698153	0.45115286	0.0	0.0
12.713202939004987	440.0	897.0	0.039063096	1.0471954	0.698153	0.45115286	0.0	0.0
12.72865915200964	441.0	895.0	0.02978561	1.0471954	0.698153	0.45115286	0.0	0.0
12.748535687002004	442.0	894.0	0.025391012	1.0471954	0.698153	0.45115286	0.0	0.0
12.76357716700295	443.0	892.0	0.023437858	1.0471954	0.698153	0.45115286	0.0	0.0
12.779117653000867	444.0	891.0	0.024414435	1.0471954	0.73306066	0.47942045	0.0	0.0
12.795627886996954	444.0	890.0	0.026855879	1.0471954	0.73306066	0.47942045	0.0	0.0
12.81411846500123	444.0	889.0	0.030762188	1.0471954	0.73306066	0.47942045	0.0	0.0
12.83007575100055	444.0	889.0	0.039063096	1.0471954	0.73306066	0.47942045	0.0	0.0
12.84654420800507	444.0	888.0	0.042481117	1.0471954	0.73306066	0.47942045	0.0	0.0
12.86242196400417	444.0	888.0	0.042969406	1.0471954	0.7679683	0.5086362	0.0	0.0
12.879382244005683	444.0	888.0	0.03710994	1.0471954	0.7679683	0.5086362	0.0	0.0
12.895959447996574	444.0	888.0	0.02978561	1.0471954	0.7679683	0.5086362	0.0	0.0
12.912449199007824	444.0	888.0	0.019531548	1.0471954	0.7679683	0.5086362	0.0	0.0
Pause
Pause
14.14783328800695	472.0	900.0	0.04541085	1.0471954	0.8726913	0.6026946	0.0	0.0
14.162612626008922	472.0	899.0	0.043945983	1.0471954	0.8726913	0.6026946	0.0	0.0
14.18007617200783	471.0	898.0	0.043945983	1.0471954	0.8726913	0.6026946	0.0	0.0
14.196801743004471	470.0	897.0	0.043945983	1.0471954	0.8726913	0.6026946	0.0	0.0
14.212787709009717	469.0	895.0	0.039551385	1.0471954	0.8726913	0.6026946	0.0	0.0
14.231650105008157	469.0	893.0	0.039551385	1.0471954	0.8726913	0.6026946	0.0	0.0
14.247013746004086	469.0	887.0	0.042481117	1.0471954	0.8726913	0.6026946	0.0	0.0
14.26345323699934	470.0	881.0	0.04931716	1.0471954	0.8726913	0.6026946	0.0	0.0
14.280198232998373	473.0	873.0	0.04443427	1.0471954	0.8726913	0.6026946	0.0	0.0
Pause
14.480496321004466	490.0	836.0	0.046875715	1.0471954	0.9774142	0.7079764	0.0	0.0
14.497057173997746	487.0	840.0	0.04931716	1.0471954	0.9774142	0.7079764	0.0	0.0
14.513447746998281	484.0	844.0	0.04931716	1.0471954	0.9774142	0.7079764	0.0	0.0
14.530421945004491	481.0	849.0	0.051758602	1.0471954	0.9774142	0.7079764	0.0	0.0
14.547091847009142	474.0	864.0	0.065430686	1.0471954	0.9774142	0.7079764	0.0	0.0
14.56369552500837	470.0	878.0	0.07718013	1.0471954	0.94250655	0.6715048	0.0	0.0
14.579974236010457	466.0	893.0	0.07913329	1.0471954	0.9075989	0.63643706	0.0	0.0
14.596444345006603	464.0	911.0	0.0698558	1.0471954	0.8726913	0.6026946	0.0	0.0
14.61303119600052	465.0	919.0	0.04931716	1.0471954	0.8377836	0.5701984	0.0	0.0
14.630479761006427	466.0	924.0	0.021484703	1.0471954	0.80287594	0.53887093	0.0	0.0
14.647163872999954	466.0	927.0	0.006347753	1.0471954	0.80287594	0.53887093	0.0	0.0
14.663560615997994	466.0	928.0	0.0122072175	1.0471954	0.80287594	0.53887093	0.0	0.0
14.680117098003393	465.0	928.0	0.025391012	1.0471954	0.80287594	0.53887093	0.0	0.0
14.697195180997369	465.0	927.0	0.027344167	1.0471954	0.80287594	0.53887093	0.0	0.0
14.713697983010206	464.0	924.0	0.021972992	1.0471954	0.8377836	0.5701984	0.0	0.0
14.729770008008927	464.0	922.0	0.01513695	1.0471954	0.80287594	0.53887093	0.0	0.0
14.747240349010099	465.0	921.0	0.01855497	1.0471954	0.7679683	0.5086362	0.0	0.0
14.763747744000284	465.0	919.0	0.020508125	1.0471954	0.73306066	0.47942045	0.0	0.0
14.780573406998883	465.0	917.0	0.018066682	1.0471954	0.698153	0.45115286	0.0	0.0
14.797282251005527	465.0	914.0	0.017578393	1.0471954	0.698153	0.45115286	0.0	0.0
14.813966863002861	466.0	912.0	0.021972992	1.0471954	0.6632454	0.42376542	0.0	0.0
14.829653135006083	465.0	910.0	0.03759823	1.0471954	0.6632454	0.42376542	0.0	0.0
14.846951194005669	465.0	909.0	0.05322347	1.0471954	0.6632454	0.42376542	0.0	0.0
14.864036619008402	463.0	907.0	0.062012665	1.0471954	0.698153	0.45115286	0.0	0.0
14.879672209004639	462.0	906.0	0.06250095	1.0471954	0.73306066	0.47942045	0.0	0.0
14.897365936005372	461.0	905.0	0.057129778	1.0471954	0.73306066	0.47942045	0.0	0.0
14.913693073001923	460.0	904.0	0.03418021	1.0471954	0.73306066	0.47942045	0.0	0.0
14.929759599006502	461.0	903.0	0.01904326	1.0471954	0.73306066	0.47942045	0.0	0.0
Pause
15.09733007500472	487.0	875.0	0.038574807	1.0471954	0.8377836	0.5701984	0.0	0.0
15.114227274010773	485.0	876.0	0.036621653	1.0471954	0.8377836	0.5701984	0.0	0.0
15.129947595007252	485.0	878.0	0.006836042	1.0471954	0.8377836	0.5701984	0.0	0.0
Pause
Pause
16.214340181002626	504.0	804.0	0.02978561	1.0471954	1.0123218	0.7459293	0.0	0.0
16.228895188003662	502.0	801.0	0.038574807	1.0471954	0.9774142	0.7079764	0.0	0.0
16.24862376600504	501.0	797.0	0.04834058	1.0471954	0.9774142	0.7079764	0.0	0.0
16.265222421003273	500.0	793.0	0.05322347	1.0471954	0.9774142	0.7079764	0.0	0.0
16.28196816900163	500.0	791.0	0.05224689	1.0471954	0.9774142	0.7079764	0.0	0.0
16.295630305001396	502.0	789.0	0.049805447	1.0471954	0.9774142	0.7079764	0.0	0.0
16.3124437850056	506.0	788.0	0.045899138	1.0471954	0.9774142	0.7079764	0.0	0.0
16.332030008998117	510.0	788.0	0.04199283	1.0471954	0.9774142	0.7079764	0.0	0.0
16.34813845199824	518.0	788.0	0.04150454	1.0471954	0.9774142	0.7079764	0.0	0.0
16.363817628007382	524.0	789.0	0.04101625	1.0471954	0.9774142	0.7079764	0.0	0.0
16.380041759999585	531.0	790.0	0.04101625	1.0471954	1.0123218	0.7459293	0.0	0.0
16.395565446000546	543.0	793.0	0.04101625	1.0471954	1.0123218	0.7459293	0.0	0.0
16.413761189003708	552.0	795.0	0.04150454	1.0471954	1.0123218	0.7459293	0.0	0.0
16.4321069180005	562.0	797.0	0.04150454	1.0471954	1.0123218	0.7459293	0.0	0.0
16.446167797999806	578.0	801.0	0.04150454	1.0471954	1.0123218	0.7459293	0.0	0.0
16.464505171999917	589.0	804.0	0.04150454	1.0471954	1.0123218	0.7459293	0.0	0.0
16.479390148000675	600.0	808.0	0.04150454	1.0471954	1.0123218	0.7459293	0.0	0.0
16.498824309004704	612.0	811.0	0.04150454	1.0471954	1.0472295	0.7854375	0.0	0.0
16.512079993000953	629.0	817.0	0.04150454	1.0471954	1.0472295	0.7854375	0.0	0.0
16.53130208500079	642.0	820.0	0.039063096	1.0471954	1.0123218	0.7459293	0.0	0.0
16.5482161710097	661.0	827.0	0.034668498	1.0122877	1.0123218	0.7854361	0.0	0.0
16.564059980999446	673.0	831.0	0.0302739	1.0122877	0.9774142	0.74725014	0.0	0.0
16.578894824997406	686.0	836.0	0.027344167	1.0122877	0.9774142	0.74725014	0.0	0.0
16.598952982007177	698.0	839.0	0.004882887	0.9773801	0.94250655	0.74831074	0.0	0.0
Pause
Pause
16.930777832996682	721.0	834.0	0.031738766	0.80284184	0.9774142	0.9611345	0.0	0.0
16.946058742003515	711.0	831.0	0.04101625	0.83774954	0.94250655	0.8918957	0.0	0.0
16.965699715001392	701.0	827.0	0.045899138	0.8726572	0.94250655	0.8572041	0.0	0.0
16.980771761009237	685.0	822.0	0.046875715	0.8726572	0.94250655	0.8572041	0.0	0.0
16.995400739004253	674.0	818.0	0.04834058	0.8726572	0.94250655	0.8572041	0.0	0.0
17.01530735900451	662.0	815.0	0.050293736	0.9075648	0.94250655	0.8217249	0.0	0.0
17.03076746300212	644.0	811.0	0.051758602	0.9075648	0.9774142	0.8586517	0.0	0.0
17.048375480997493	631.0	808.0	0.055664912	0.94247246	1.0123218	0.860531	0.0	0.0
17.06422074600414	611.0	805.0	0.05957122	0.9773801	1.0123218	0.8236207	0.0	0.0
17.08083094500762	597.0	802.0	0.06347753	0.9773801	1.0472295	0.86289513	0.0	0.0
17.09559390200593	584.0	799.0	0.065918975	1.0122877	1.0472295	0.82494414	0.0	0.0
17.11601152899675	571.0	796.0	0.06640726	1.0471954	1.0472295	0.7854375	0.0	0.0
17.130804985004943	553.0	791.0	0.065430686	1.0471954	1.0472295	0.7854375	0.0	0.0
17.147617759997956	541.0	788.0	0.0561532	1.0471954	1.0123218	0.7459293	0.0	0.0
17.164868449006462	525.0	786.0	0.03369192	1.0471954	1.0123218	0.7459293	0.0	0.0
Pause
17.34952230300405	505.0	784.0	0.012695506	1.0471954	1.0123218	0.7459293	0.0	0.0
17.36210045599728	515.0	788.0	0.018066682	1.0471954	1.0123218	0.7459293	0.0	0.0
17.379567563009914	519.0	790.0	0.021484703	1.0471954	0.9774142	0.7079764	0.0	0.0
17.39678942899627	532.0	795.0	0.023437858	1.0471954	0.9774142	0.7079764	0.0	0.0
17.413275233004242	542.0	800.0	0.026855879	1.0471954	0.9774142	0.7079764	0.0	0.0
17.430949344998226	559.0	806.0	0.026855879	1.0471954	0.9774142	0.7079764	0.0	0.0
17.44684145200881	571.0	810.0	0.027344167	1.0471954	1.0123218	0.7459293	0.0	0.0
17.463412085009622	583.0	814.0	0.028320745	1.0471954	1.0123218	0.7459293	0.0	0.0
17.47992815299949	602.0	818.0	0.02978561	1.0471954	0.9774142	0.7079764	0.0	0.0
17.496832511998946	614.0	821.0	0.03320363	1.0471954	0.9774142	0.7079764	0.0	0.0
17.513383243000135	627.0	823.0	0.035156786	1.0122877	0.94250655	0.7103383	0.0	0.0
17.530099634997896	646.0	826.0	0.035645075	1.0122877	0.94250655	0.7103383	0.0	0.0
17.546712795010535	658.0	827.0	0.035645075	1.0122877	0.9075989	0.6746481	0.0	0.0
17.56225085099868	669.0	828.0	0.035645075	0.9773801	0.9075989	0.7122158	0.0	0.0
17.58010036300402	680.0	828.0	0.035645075	0.9773801	0.9075989	0.7122158	0.0	0.0
17.59673747200577	695.0	828.0	0.032227054	0.94247246	0.9075989	0.7491422	0.0	0.0
17.61509770200064	706.0	829.0	0.019531548	0.94247246	0.9075989	0.7491422	0.0	0.0
17.629569423006615	721.0	829.0	0.010254063	0.9075648	0.9075989	0.7854333	0.0	0.0
17.647101599010057	730.0	829.0	0.0053711757	0.9075648	0.9075989	0.7854333	0.0	0.0
17.66535545300576	739.0	829.0	0.0058594644	0.8726572	0.9075989	0.8210982	0.0	0.0
17.679298073009704	750.0	828.0	0.013183795	0.8726572	0.8726913	0.78543276	0.0	0.0
17.696956138999667	756.0	828.0	0.024902724	0.83774954	0.8726913	0.8206616	0.0	0.0
17.712713396002073	760.0	827.0	0.036621653	0.80284184	0.8726913	0.8554605	0.0	0.0
17.732190487004118	764.0	826.0	0.04101625	0.80284184	0.8726913	0.8554605	0.0	0.0
17.746684142010054	767.0	826.0	0.040527962	0.80284184	0.8726913	0.8554605	0.0	0.0
17.762547414007713	769.0	826.0	0.016601816	0.7679342	0.8726913	0.8898378	0.0	0.0
Pause
18.04704383799981	747.0	835.0	0.03808652	0.80284184	0.8726913	0.8554605	0.0	0.0
18.063529892009683	747.0	835.0	0.013672084	0.80284184	0.8726913	0.8554605	0.0	0.0
Pause
18.429113919002702	783.0	844.0	0.038574807	0.7679342	1.0472295	1.0622227	0.0	0.0
18.44611779799743	784.0	844.0	0.04101625	0.73302656	1.0472295	1.0914361	0.0	0.0
18.464830415003235	784.0	845.0	0.04443427	0.73302656	1.0472295	1.0914361	0.0	0.0
18.47979467800178	784.0	846.0	0.047852293	0.73302656	1.0472295	1.0914361	0.0	0.0
18.497481240003253	784.0	848.0	0.04931716	0.73302656	1.0472295	1.0914361	0.0	0.0
18.51484247800545	784.0	851.0	0.047364004	0.73302656	1.0123218	1.0583438	0.0	0.0
18.52986411099846	784.0	855.0	0.03418021	0.73302656	1.0123218	1.0583438	0.0	0.0
Pause
18.665721215002122	774.0	879.0	0.025391012	0.73302656	0.7679683	0.82040375	0.0	0.0
18.679792157010525	774.0	879.0	0.03808652	0.73302656	0.7679683	0.82040375	0.0	0.0
18.696815338000306	774.0	879.0	0.061524376	0.73302656	0.7679683	0.82040375	0.0	0.0
18.71225509099895	774.0	879.0	0.068879224	0.73302656	0.7679683	0.82040375	0.0	0.0
18.730859967006836	774.0	879.0	0.07034409	0.73302656	0.7679683	0.82040375	0.0	0.0
18.746521781999036	774.0	879.0	0.057618067	0.73302656	0.7679683	0.82040375	0.0	0.0
Pause
19.1804167329974	707.0	894.0	0.025879301	0.8726572	0.8726913	0.78543276	0.0	0.0
19.196913033010787	706.0	893.0	0.032227054	0.8726572	0.8726913	0.78543276	0.0	0.0
19.21455814600631	706.0	891.0	0.03710994	0.8726572	0.8726913	0.78543276	0.0	0.0
19.231614882999565	706.0	890.0	0.036621653	0.9075648	0.8726913	0.74976766	0.0	0.0
19.247070659999736	707.0	890.0	0.036621653	0.9075648	0.9075989	0.7854333	0.0	0.0
19.264690918003907	711.0	890.0	0.047364004	0.9075648	0.9075989	0.7854333	0.0	0.0
19.281547461010632	718.0	890.0	0.053711757	0.9075648	0.94250655	0.8217249	0.0	0.0
19.296886413998436	725.0	890.0	0.0561532	0.8726572	0.94250655	0.8572041	0.0	0.0
19.314962563003064	733.0	890.0	0.05664149	0.8726572	0.94250655	0.8572041	0.0	0.0
19.331605618004687	747.0	888.0	0.053711757	0.83774954	0.9075989	0.8561494	0.0	0.0
19.346941561001586	756.0	885.0	0.039551385	0.83774954	0.9075989	0.8561494	0.0	0.0
Pause
