time	x	y	pressure	tiltX	tiltY	azimuth	sidePressure	rotation
45.08351474790834	322.0	715.0	0.028320745	0.8726572	1.0472295	0.9681709	0.0	0.0
45.15206093899906	319.0	713.0	0.07718013	0.83774954	1.0472295	1.0006648	0.0	0.0
45.17023698496632	318.0	713.0	0.08108644	0.83774954	1.0472295	1.0006648	0.0	0.0
45.18686424684711	317.0	712.0	0.09036393	0.83774954	1.0472295	1.0006648	0.0	0.0
45.2036974709481	316.0	712.0	0.09378195	0.83774954	1.0472295	1.0006648	0.0	0.0
45.22004995797761	314.0	712.0	0.094758525	0.83774954	1.0472295	1.0006648	0.0	0.0
45.23746417788789	313.0	712.0	0.09719997	0.83774954	1.0472295	1.0006648	0.0	0.0
45.25431721797213	310.0	712.0	0.098664835	0.83774954	1.0472295	1.0006648	0.0	0.0
45.2705010548234	308.0	712.0	0.09964141	0.83774954	1.0472295	1.0006648	0.0	0.0
45.28724027401768	306.0	712.0	0.10061799	0.8726572	1.0472295	0.9681709	0.0	0.0
45.30427375389263	304.0	712.0	0.10110628	0.8726572	1.0472295	0.9681709	0.0	0.0
45.3210467598401	302.0	712.0	0.10159457	0.8726572	1.0472295	0.9681709	0.0	0.0
45.337428556988016	300.0	712.0	0.10159457	0.8726572	1.0472295	0.9681709	0.0	0.0
45.353613873012364	299.0	713.0	0.102571145	0.8726572	1.0472295	0.9681709	0.0	0.0
45.37007240881212	297.0	713.0	0.1045243	0.8726572	1.0472295	0.9681709	0.0	0.0
45.38663379685022	295.0	713.0	0.10501259	0.8726572	1.0472295	0.9681709	0.0	0.0
45.40360190090723	293.0	714.0	0.10696574	0.9075648	1.0472295	0.9344305	0.0	0.0
45.420133204897866	291.0	715.0	0.109895475	0.9075648	1.0472295	0.9344305	0.0	0.0
45.43714592582546	290.0	715.0	0.11184863	0.9075648	1.0472295	0.9344305	0.0	0.0
45.45414998289198	287.0	716.0	0.113313496	0.9075648	1.0472295	0.9344305	0.0	0.0
45.470734796021134	286.0	717.0	0.11429007	0.9075648	1.0472295	0.9344305	0.0	0.0
45.48755526682362	284.0	718.0	0.11429007	0.9075648	1.0472295	0.9344305	0.0	0.0
45.503971894970164	281.0	719.0	0.11429007	0.8726572	1.0472295	0.9681709	0.0	0.0
45.5205898238346	280.0	720.0	0.11429007	0.8726572	1.0472295	0.9681709	0.0	0.0
45.536888062022626	278.0	721.0	0.11477836	0.9075648	1.0472295	0.9344305	0.0	0.0
45.553880388848484	276.0	723.0	0.11575494	0.9075648	1.0472295	0.9344305	0.0	0.0
45.57034179591574	274.0	724.0	0.11624323	0.94247246	1.0472295	0.8993648	0.0	0.0
45.58760008192621	272.0	725.0	0.117219806	0.94247246	1.0472295	0.8993648	0.0	0.0
45.603983086999506	270.0	727.0	0.11868467	0.9773801	1.0472295	0.86289513	0.0	0.0
45.620658908970654	268.0	728.0	0.12014954	0.9773801	1.0472295	0.86289513	0.0	0.0
45.63808404887095	267.0	729.0	0.12259098	1.0122877	1.0472295	0.82494414	0.0	0.0
45.655747496988624	265.0	731.0	0.12307927	1.0122877	1.0472295	0.82494414	0.0	0.0
45.67008712282404	263.0	733.0	0.12356756	1.0122877	1.0472295	0.82494414	0.0	0.0
45.68719901400618	262.0	734.0	0.12405585	1.0122877	1.0472295	0.82494414	0.0	0.0
45.7039317060262	260.0	737.0	0.124544136	1.0122877	1.0472295	0.82494414	0.0	0.0
45.72059952886775	259.0	738.0	0.126009	1.0122877	1.0472295	0.82494414	0.0	0.0
45.73746716394089	257.0	740.0	0.1264973	1.0122877	1.0472295	0.82494414	0.0	0.0
45.754085207823664	256.0	743.0	0.12698558	1.0122877	1.0472295	0.82494414	0.0	0.0
45.770683398935944	254.0	745.0	0.12747388	1.0122877	1.0472295	0.82494414	0.0	0.0
45.787656185915694	253.0	746.0	0.12796216	1.0471954	1.0472295	0.7854375	0.0	0.0
45.80487188184634	252.0	748.0	0.12893873	1.0471954	1.0472295	0.7854375	0.0	0.0
45.820264835841954	251.0	750.0	0.12942703	1.0471954	1.0472295	0.7854375	0.0	0.0
45.836963317822665	250.0	752.0	0.12942703	1.0471954	1.0472295	0.7854375	0.0	0.0
45.85390587197617	249.0	756.0	0.12942703	1.0471954	1.0472295	0.7854375	0.0	0.0
45.87076317681931	248.0	758.0	0.12942703	1.0471954	1.0472295	0.7854375	0.0	0.0
45.887218014802784	247.0	760.0	0.12942703	1.0471954	1.0472295	0.7854375	0.0	0.0
45.90434824186377	247.0	762.0	0.12991531	1.0471954	1.0472295	0.7854375	0.0	0.0
45.920636946801096	246.0	764.0	0.12991531	1.0471954	1.0472295	0.7854375	0.0	0.0
45.93752910196781	246.0	765.0	0.12991531	1.0471954	1.0472295	0.7854375	0.0	0.0
45.954262994928285	246.0	767.0	0.12991531	1.0471954	1.0472295	0.7854375	0.0	0.0
45.970898433821276	246.0	769.0	0.12991531	1.0471954	1.0472295	0.7854375	0.0	0.0
45.987311988836154	246.0	771.0	0.13089189	1.0471954	1.0472295	0.7854375	0.0	0.0
46.00366959394887	246.0	773.0	0.13235676	1.0471954	1.0472295	0.7854375	0.0	0.0
46.02052637282759	246.0	774.0	0.13482872	1.0471954	1.0472295	0.7854375	0.0	0.0
46.037219372810796	246.0	776.0	0.13727017	1.0471954	1.0472295	0.7854375	0.0	0.0
46.05374966096133	246.0	778.0	0.13873503	1.0471954	1.0472295	0.7854375	0.0	0.0
46.070956190815195	247.0	780.0	0.1397116	1.0471954	1.0123218	0.7459293	0.0	0.0
46.087616621982306	247.0	782.0	0.14166476	1.0471954	0.9774142	0.7079764	0.0	0.0
46.104756237939	247.0	784.0	0.14459449	1.0471954	0.9774142	0.7079764	0.0	0.0
46.12023022491485	248.0	787.0	0.1485008	1.0471954	0.94250655	0.6715048	0.0	0.0
46.136888733832166	248.0	789.0	0.15387198	1.0471954	0.94250655	0.6715048	0.0	0.0
46.15445613185875	248.0	791.0	0.16021973	1.0471954	0.94250655	0.6715048	0.0	0.0
46.17103641387075	249.0	794.0	0.16266118	1.0471954	0.9075989	0.63643706	0.0	0.0
46.18747169198468	250.0	795.0	0.16412604	1.0471954	0.9075989	0.63643706	0.0	0.0
46.20493705687113	250.0	797.0	0.1660792	1.0471954	0.8726913	0.6026946	0.0	0.0
46.220028241863474	251.0	799.0	0.16852064	1.0471954	0.8726913	0.6026946	0.0	0.0
46.23725379188545	252.0	801.0	0.1704738	1.0471954	0.8726913	0.6026946	0.0	0.0
46.25364438886754	252.0	802.0	0.17242695	1.0471954	0.8726913	0.6026946	0.0	0.0
46.27206531399861	253.0	804.0	0.17242695	1.0471954	0.8377836	0.5701984	0.0	0.0
46.28757102484815	254.0	806.0	0.17291524	1.0471954	0.8377836	0.5701984	0.0	0.0
46.3043479998596	255.0	808.0	0.17340353	1.0471954	0.8377836	0.5701984	0.0	0.0
46.32013653102331	257.0	811.0	0.17291524	1.0471954	0.8377836	0.5701984	0.0	0.0
46.337190518854186	259.0	813.0	0.17291524	1.0471954	0.8377836	0.5701984	0.0	0.0
46.35381116089411	260.0	815.0	0.17389181	1.0471954	0.80287594	0.53887093	0.0	0.0
46.3707521869801	261.0	817.0	0.17486839	1.0471954	0.80287594	0.53887093	0.0	0.0
46.38769558700733	263.0	820.0	0.17828642	1.0471954	0.7679683	0.5086362	0.0	0.0
46.4036510118749	264.0	822.0	0.18414588	1.0122877	0.7679683	0.5429612	0.0	0.0
46.42017046594992	266.0	824.0	0.18658732	1.0122877	0.73306066	0.51251423	0.0	0.0
46.436897814972326	268.0	826.0	0.19000535	1.0122877	0.698153	0.48294052	0.0	0.0
46.45427384390496	269.0	828.0	0.19391166	1.0122877	0.698153	0.48294052	0.0	0.0
46.47100647399202	271.0	830.0	0.19537652	1.0122877	0.6632454	0.45418358	0.0	0.0
46.48766439501196	273.0	832.0	0.19781797	1.0122877	0.6632454	0.45418358	0.0	0.0
46.503313574008644	275.0	833.0	0.2017548	1.0122877	0.6283377	0.42618838	0.0	0.0
46.520224645966664	278.0	836.0	0.20224307	1.0122877	0.6283377	0.42618838	0.0	0.0
46.53753154282458	281.0	837.0	0.20370795	0.9773801	0.59343004	0.42699063	0.0	0.0
46.55400955397636	283.0	839.0	0.20468453	0.9773801	0.59343004	0.42699063	0.0	0.0
46.57151040597819	286.0	840.0	0.20419623	0.9773801	0.59343004	0.42699063	0.0	0.0
46.5880118960049	290.0	842.0	0.20370795	0.94247246	0.59343004	0.4556832	0.0	0.0
46.60338578582741	293.0	843.0	0.20419623	0.94247246	0.59343004	0.4556832	0.0	0.0
46.6206684128847	296.0	844.0	0.20370795	0.94247246	0.59343004	0.4556832	0.0	0.0
46.63781586685218	301.0	844.0	0.20077822	0.94247246	0.6283377	0.48571083	0.0	0.0
46.65416364488192	304.0	845.0	0.19586481	0.9075648	0.6283377	0.5163063	0.0	0.0
46.671175236813724	307.0	845.0	0.19537652	0.9075648	0.6283377	0.5163063	0.0	0.0
46.68719800002873	311.0	845.0	0.19537652	0.9075648	0.6632454	0.5480612	0.0	0.0
46.70396306598559	313.0	845.0	0.19488823	0.9075648	0.6632454	0.5480612	0.0	0.0
46.72161216195673	315.0	845.0	0.19488823	0.8726572	0.6632454	0.58031154	0.0	0.0
46.73714424483478	318.0	844.0	0.19537652	0.8726572	0.6632454	0.58031154	0.0	0.0
46.75382514996454	320.0	844.0	0.19537652	0.8726572	0.6632454	0.58031154	0.0	0.0
46.77117699896917	322.0	843.0	0.19586481	0.8726572	0.6632454	0.58031154	0.0	0.0
46.78763640183024	325.0	843.0	0.19586481	0.8726572	0.6283377	0.54750335	0.0	0.0
46.80368322483264	327.0	842.0	0.19684139	0.8726572	0.6283377	0.54750335	0.0	0.0
46.82059151981957	329.0	841.0	0.19781797	0.8726572	0.59343004	0.5150522	0.0	0.0
46.83721445198171	332.0	840.0	0.20077822	0.83774954	0.5585224	0.5125154	0.0	0.0
46.85373233980499	333.0	839.0	0.20273137	0.83774954	0.52361476	0.47942215	0.0	0.0
46.8714214139618	336.0	838.0	0.20273137	0.83774954	0.4887071	0.4465269	0.0	0.0
46.88726412598044	339.0	836.0	0.20370795	0.83774954	0.4887071	0.4465269	0.0	0.0
46.90375583199784	341.0	834.0	0.2051728	0.83774954	0.4887071	0.4465269	0.0	0.0
46.92030736198649	344.0	833.0	0.21152057	0.83774954	0.4887071	0.4465269	0.0	0.0
46.93843338289298	347.0	831.0	0.21347372	0.80284184	0.4887071	0.47438458	0.0	0.0
46.95399544481188	349.0	829.0	0.2144503	0.80284184	0.4887071	0.47438458	0.0	0.0
46.97144802194089	351.0	828.0	0.2227512	0.80284184	0.4887071	0.47438458	0.0	0.0
46.988613622961566	354.0	825.0	0.22861066	0.80284184	0.52361476	0.508638	0.0	0.0
47.00419674697332	356.0	824.0	0.23447013	0.80284184	0.52361476	0.508638	0.0	0.0
47.02123501896858	358.0	823.0	0.23837644	0.7679342	0.52361476	0.5388729	0.0	0.0
47.037403566995636	360.0	820.0	0.23837644	0.7679342	0.5585224	0.5743406	0.0	0.0
47.054672511992976	362.0	818.0	0.23837644	0.7679342	0.5585224	0.5743406	0.0	0.0
47.070027018897235	364.0	816.0	0.23886473	0.73302656	0.59343004	0.64296615	0.0	0.0
47.087263121968135	365.0	814.0	0.24765393	0.73302656	0.59343004	0.64296615	0.0	0.0
47.104120121803135	368.0	811.0	0.26965743	0.73302656	0.59343004	0.64296615	0.0	0.0
47.120669514872134	370.0	808.0	0.27405202	0.73302656	0.6283377	0.6789697	0.0	0.0
47.13746436685324	373.0	804.0	0.27454033	0.73302656	0.6283377	0.6789697	0.0	0.0
47.15416342183016	375.0	801.0	0.27502862	0.73302656	0.6632454	0.714716	0.0	0.0
47.17009268188849	377.0	799.0	0.28723583	0.6981189	0.6632454	0.7497679	0.0	0.0
47.187534915981814	378.0	796.0	0.29944304	0.6981189	0.6632454	0.7497679	0.0	0.0
47.204171269899234	380.0	793.0	0.30334935	0.6981189	0.6632454	0.7497679	0.0	0.0
47.220688317902386	381.0	790.0	0.30383766	0.6981189	0.698153	0.78543276	0.0	0.0
47.237595847807825	382.0	788.0	0.30383766	0.6981189	0.698153	0.78543276	0.0	0.0
47.25469873799011	383.0	784.0	0.30432594	0.6981189	0.698153	0.78543276	0.0	0.0
47.270801048958674	383.0	782.0	0.30725566	0.6981189	0.698153	0.78543276	0.0	0.0
47.28756295982748	383.0	779.0	0.3092088	0.6632113	0.73306066	0.856149	0.0	0.0
47.304276620969176	382.0	775.0	0.30872053	0.6632113	0.7679683	0.89060134	0.0	0.0
47.32081612688489	382.0	772.0	0.30676737	0.6632113	0.80287594	0.9244722	0.0	0.0
47.33764698798768	381.0	769.0	0.3057908	0.6981189	0.8377836	0.9238034	0.0	0.0
47.35488472902216	380.0	764.0	0.3062791	0.6981189	0.8377836	0.9238034	0.0	0.0
47.37046832195483	378.0	762.0	0.30676737	0.6981189	0.8726913	0.95736957	0.0	0.0
47.38736448693089	377.0	759.0	0.30725566	0.6981189	0.8726913	0.95736957	0.0	0.0
47.40436599496752	375.0	754.0	0.3062791	0.6981189	0.9075989	0.99054897	0.0	0.0
47.42026655282825	374.0	751.0	0.3062791	0.6981189	0.9075989	0.99054897	0.0	0.0
47.43708423781209	373.0	749.0	0.3057908	0.6981189	0.9075989	0.99054897	0.0	0.0
47.45440888381563	371.0	745.0	0.30432594	0.6981189	0.9075989	0.99054897	0.0	0.0
47.47137065883726	369.0	743.0	0.3057908	0.6981189	0.94250655	1.023356	0.0	0.0
47.487164568854496	368.0	741.0	0.3057908	0.6981189	0.94250655	1.023356	0.0	0.0
47.5041378159076	367.0	738.0	0.3053025	0.6981189	0.9774142	1.055806	0.0	0.0
47.52101608389057	366.0	737.0	0.3053025	0.6981189	0.9774142	1.055806	0.0	0.0
47.537385360803455	365.0	735.0	0.30432594	0.6981189	1.0123218	1.0879154	0.0	0.0
47.55418306100182	363.0	732.0	0.30383766	0.6632113	1.0123218	1.1166704	0.0	0.0
47.57116115302779	362.0	731.0	0.30432594	0.6632113	1.0123218	1.1166704	0.0	0.0
47.58741999301128	361.0	729.0	0.30432594	0.6981189	1.0472295	1.1197015	0.0	0.0
47.60453306394629	359.0	727.0	0.30383766	0.6981189	1.0472295	1.1197015	0.0	0.0
47.620267868973315	358.0	726.0	0.30286106	0.73302656	1.0472295	1.0914361	0.0	0.0
47.63698625587858	356.0	724.0	0.3013962	0.73302656	1.0472295	1.0914361	0.0	0.0
47.65444290288724	354.0	723.0	0.3009079	0.7679342	1.0472295	1.0622227	0.0	0.0
47.671295125968754	351.0	722.0	0.3018845	0.80284184	1.0472295	1.03199	0.0	0.0
47.687077967915684	349.0	721.0	0.3018845	0.80284184	1.0472295	1.03199	0.0	0.0
47.70462594088167	347.0	720.0	0.3013962	0.83774954	1.0472295	1.0006648	0.0	0.0
47.721305795013905	345.0	718.0	0.3013962	0.80284184	1.0472295	1.03199	0.0	0.0
47.73719083494507	343.0	717.0	0.30286106	0.80284184	1.0472295	1.03199	0.0	0.0
47.75466487486847	342.0	717.0	0.30237278	0.80284184	1.0472295	1.03199	0.0	0.0
47.77137556485832	339.0	715.0	0.30286106	0.80284184	1.0472295	1.03199	0.0	0.0
47.7872498750221	338.0	715.0	0.30237278	0.80284184	1.0472295	1.03199	0.0	0.0
47.804720458807424	336.0	714.0	0.30334935	0.80284184	1.0472295	1.03199	0.0	0.0
47.82140866480768	334.0	713.0	0.30334935	0.80284184	1.0472295	1.03199	0.0	0.0
47.83705479395576	332.0	712.0	0.30334935	0.83774954	1.0472295	1.0006648	0.0	0.0
47.854089461965486	331.0	711.0	0.30286106	0.83774954	1.0472295	1.0006648	0.0	0.0
47.87142867501825	328.0	711.0	0.30237278	0.83774954	1.0472295	1.0006648	0.0	0.0
47.88678254396655	327.0	710.0	0.3018845	0.83774954	1.0472295	1.0006648	0.0	0.0
47.90476387296803	326.0	710.0	0.3018845	0.83774954	1.0472295	1.0006648	0.0	0.0
47.921490414999425	324.0	709.0	0.30286106	0.83774954	1.0472295	1.0006648	0.0	0.0
47.93742925580591	323.0	709.0	0.30334935	0.83774954	1.0472295	1.0006648	0.0	0.0
47.9548485619016	322.0	708.0	0.3018845	0.83774954	1.0472295	1.0006648	0.0	0.0
47.971342637902126	319.0	708.0	0.3009079	0.83774954	1.0472295	1.0006648	0.0	0.0
47.98744711186737	318.0	708.0	0.29993135	0.83774954	1.0472295	1.0006648	0.0	0.0
48.004625527886674	317.0	707.0	0.29944304	0.83774954	1.0472295	1.0006648	0.0	0.0
48.02156258490868	315.0	707.0	0.2979782	0.83774954	1.0472295	1.0006648	0.0	0.0
48.03739258879796	313.0	707.0	0.29748988	0.83774954	1.0472295	1.0006648	0.0	0.0
48.05488185980357	312.0	707.0	0.2970016	0.8726572	1.0472295	0.9681709	0.0	0.0
48.07158026495017	311.0	707.0	0.29651332	0.8726572	1.0472295	0.9681709	0.0	0.0
48.08715994190425	310.0	707.0	0.29407188	0.8726572	1.0472295	0.9681709	0.0	0.0
48.10448859189637	308.0	707.0	0.29211873	0.9075648	1.0472295	0.9344305	0.0	0.0
48.121436236891896	306.0	708.0	0.29065385	0.9075648	1.0472295	0.9344305	0.0	0.0
48.13827538699843	305.0	708.0	0.28967726	0.9075648	1.0472295	0.9344305	0.0	0.0
48.15544942300767	304.0	708.0	0.28918898	0.9075648	1.0472295	0.9344305	0.0	0.0
48.17157116997987	303.0	709.0	0.2887007	0.9075648	1.0472295	0.9344305	0.0	0.0
48.18821491394192	302.0	709.0	0.2877241	0.9075648	1.0472295	0.9344305	0.0	0.0
48.20493021490984	301.0	709.0	0.28577095	0.9075648	1.0472295	0.9344305	0.0	0.0
48.221746967872605	299.0	710.0	0.2847944	0.9075648	1.0472295	0.9344305	0.0	0.0
48.23771309782751	298.0	711.0	0.2838178	0.9075648	1.0472295	0.9344305	0.0	0.0
48.25549513590522	297.0	711.0	0.2803998	0.9075648	1.0472295	0.9344305	0.0	0.0
48.271333230892196	296.0	711.0	0.27454033	0.9075648	1.0472295	0.9344305	0.0	0.0
48.28770741797052	295.0	712.0	0.26965743	0.9075648	1.0472295	0.9344305	0.0	0.0
48.30545341502875	294.0	712.0	0.2657206	0.9075648	1.0472295	0.9344305	0.0	0.0
48.3218022310175	293.0	713.0	0.26327917	0.94247246	1.0472295	0.8993648	0.0	0.0
48.33772700489499	293.0	714.0	0.2618143	0.94247246	1.0472295	0.8993648	0.0	0.0
48.35349903302267	292.0	715.0	0.26132601	0.94247246	1.0472295	0.8993648	0.0	0.0
48.371888380963355	291.0	715.0	0.26132601	0.94247246	1.0472295	0.8993648	0.0	0.0
48.38855099189095	289.0	716.0	0.26132601	0.94247246	1.0472295	0.8993648	0.0	0.0
48.40516839991324	288.0	717.0	0.26083773	0.94247246	1.0472295	0.8993648	0.0	0.0
48.42192412982695	287.0	718.0	0.25986114	0.94247246	1.0472295	0.8993648	0.0	0.0
48.438601723872125	286.0	719.0	0.25888458	0.94247246	1.0472295	0.8993648	0.0	0.0
48.45334750181064	285.0	719.0	0.2574197	0.94247246	1.0472295	0.8993648	0.0	0.0
48.471945417812094	285.0	720.0	0.25693142	0.9075648	1.0472295	0.9344305	0.0	0.0
48.48865278298035	283.0	721.0	0.2574197	0.9075648	1.0472295	0.9344305	0.0	0.0
48.50531149492599	282.0	722.0	0.25693142	0.8726572	1.0472295	0.9681709	0.0	0.0
48.52168178302236	281.0	724.0	0.25693142	0.83774954	1.0472295	1.0006648	0.0	0.0
48.53869274095632	279.0	725.0	0.25693142	0.83774954	1.0472295	1.0006648	0.0	0.0
48.55372220487334	278.0	726.0	0.24081789	0.83774954	1.0472295	1.0006648	0.0	0.0
48.5700857648626	277.0	727.0	0.15094225	0.8726572	1.0472295	0.9681709	0.0	0.0
Pause
63.82108724792488	258.0	811.0	0.04101625	0.83774954	1.0472295	1.0006648	0.0	0.0
63.84032199392095	258.0	811.0	0.054688334	0.83774954	1.0472295	1.0006648	0.0	0.0
63.854517214000225	258.0	810.0	0.065430686	0.83774954	1.0472295	1.0006648	0.0	0.0
63.87082017981447	258.0	810.0	0.07718013	0.83774954	1.0472295	1.0006648	0.0	0.0
63.890453413827345	258.0	810.0	0.08694591	0.83774954	1.0472295	1.0006648	0.0	0.0
63.90546557190828	258.0	810.0	0.09622339	0.83774954	1.0472295	1.0006648	0.0	0.0
63.92070606793277	258.0	810.0	0.10940719	0.83774954	1.0472295	1.0006648	0.0	0.0
63.94048131396994	258.0	810.0	0.113801785	0.83774954	1.0472295	1.0006648	0.0	0.0
63.95546588790603	258.0	810.0	0.11917296	0.83774954	1.0472295	1.0006648	0.0	0.0
63.97069593984634	257.0	810.0	0.12698558	0.83774954	1.0472295	1.0006648	0.0	0.0
63.99046154785901	257.0	809.0	0.13482872	0.83774954	1.0472295	1.0006648	0.0	0.0
64.00548809184693	257.0	809.0	0.14459449	0.83774954	1.0472295	1.0006648	0.0	0.0
64.02079450292513	256.0	809.0	0.15338369	0.83774954	1.0472295	1.0006648	0.0	0.0
64.0401221839711	256.0	808.0	0.15826657	0.83774954	1.0472295	1.0006648	0.0	0.0
64.05546123487875	256.0	808.0	0.16217288	0.83774954	1.0472295	1.0006648	0.0	0.0
64.07062960695475	255.0	808.0	0.16900893	0.83774954	1.0472295	1.0006648	0.0	0.0
64.09105669800192	255.0	807.0	0.17193866	0.83774954	1.0472295	1.0006648	0.0	0.0
64.10546426801011	254.0	807.0	0.17438011	0.83774954	1.0472295	1.0006648	0.0	0.0
64.12075265101157	254.0	807.0	0.17584497	0.83774954	1.0472295	1.0006648	0.0	0.0
64.14124127989635	254.0	807.0	0.18121615	0.83774954	1.0472295	1.0006648	0.0	0.0
64.15687251789495	254.0	806.0	0.18609904	0.83774954	1.0472295	1.0006648	0.0	0.0
64.17363538383506	253.0	806.0	0.1919585	0.83774954	1.0472295	1.0006648	0.0	0.0
64.19043895392679	253.0	806.0	0.19488823	0.80284184	1.0472295	1.03199	0.0	0.0
64.20648530381732	253.0	806.0	0.1963531	0.80284184	1.0472295	1.03199	0.0	0.0
64.22063313587569	252.0	806.0	0.19732967	0.80284184	1.0472295	1.03199	0.0	0.0
64.2410465539433	252.0	805.0	0.19879454	0.80284184	1.0472295	1.03199	0.0	0.0
64.25648323190399	252.0	805.0	0.19977112	0.80284184	1.0472295	1.03199	0.0	0.0
64.27082091290504	251.0	805.0	0.20077822	0.80284184	1.0472295	1.03199	0.0	0.0
64.29047879483551	251.0	804.0	0.20321965	0.80284184	1.0472295	1.03199	0.0	0.0
64.30646268092096	251.0	804.0	0.20468453	0.80284184	1.0472295	1.03199	0.0	0.0
64.32079595094547	250.0	804.0	0.2056611	0.80284184	1.0472295	1.03199	0.0	0.0
64.33843649085611	250.0	803.0	0.20663768	0.80284184	1.0472295	1.03199	0.0	0.0
64.35650553484447	249.0	802.0	0.20663768	0.80284184	1.0472295	1.03199	0.0	0.0
64.37149024102837	248.0	801.0	0.20663768	0.80284184	1.0472295	1.03199	0.0	0.0
64.38841584301554	248.0	801.0	0.20712596	0.80284184	1.0472295	1.03199	0.0	0.0
64.40649383096024	247.0	799.0	0.20712596	0.80284184	1.0472295	1.03199	0.0	0.0
64.42152144480497	246.0	799.0	0.20712596	0.80284184	1.0472295	1.03199	0.0	0.0
64.4377663708292	245.0	798.0	0.20712596	0.80284184	1.0472295	1.03199	0.0	0.0
64.45442375191487	244.0	796.0	0.20712596	0.80284184	1.0472295	1.03199	0.0	0.0
64.47076049400494	243.0	795.0	0.20712596	0.80284184	1.0472295	1.03199	0.0	0.0
64.48813456483185	243.0	794.0	0.20761426	0.80284184	1.0472295	1.03199	0.0	0.0
64.50443396088667	241.0	792.0	0.20761426	0.80284184	1.0472295	1.03199	0.0	0.0
64.5214745728299	240.0	791.0	0.20761426	0.80284184	1.0472295	1.03199	0.0	0.0
