time	x	y	pressure	tiltX	tiltY	azimuth	sidePressure	rotation
59.501898799993796	745.0	474.0	3.0518044E-5	0.94247246	1.0472295	0.8993648	0.0	0.0
59.56227464399126	745.0	475.0	0.008300908	0.94247246	1.0472295	0.8993648	0.0	0.0
59.57887850499537	745.0	475.0	0.008789197	0.94247246	1.0472295	0.8993648	0.0	0.0
59.59523373299453	745.0	474.0	0.009277485	0.94247246	1.0472295	0.8993648	0.0	0.0
59.61577896299423	746.0	474.0	0.011718929	0.94247246	1.0472295	0.8993648	0.0	0.0
59.629421744000865	747.0	473.0	0.01513695	0.94247246	1.0472295	0.8993648	0.0	0.0
59.645838443000684	748.0	472.0	0.020996414	0.94247246	1.0472295	0.8993648	0.0	0.0
59.66269021900371	750.0	472.0	0.023437858	0.94247246	1.0472295	0.8993648	0.0	0.0
59.67934826799319	753.0	470.0	0.025391012	0.94247246	1.0472295	0.8993648	0.0	0.0
59.695764057993074	755.0	469.0	0.028809033	0.9075648	1.0472295	0.9344305	0.0	0.0
59.71271858799446	758.0	469.0	0.032227054	0.9075648	1.0472295	0.9344305	0.0	0.0
59.72881962299289	762.0	467.0	0.03418021	0.9075648	1.0472295	0.9344305	0.0	0.0
59.746433879001415	765.0	467.0	0.035156786	0.9075648	1.0472295	0.9344305	0.0	0.0
59.76282813500438	769.0	466.0	0.036133364	0.8726572	1.0472295	0.9681709	0.0	0.0
59.77944223799568	774.0	466.0	0.036621653	0.8726572	1.0472295	0.9681709	0.0	0.0
59.79590386799828	777.0	465.0	0.036621653	0.8726572	1.0472295	0.9681709	0.0	0.0
59.81270148299518	780.0	465.0	0.036621653	0.83774954	1.0472295	1.0006648	0.0	0.0
59.82946958599496	784.0	465.0	0.036621653	0.83774954	1.0472295	1.0006648	0.0	0.0
59.845835122003336	786.0	465.0	0.036133364	0.83774954	1.0472295	1.0006648	0.0	0.0
59.86284602800151	788.0	466.0	0.036133364	0.83774954	1.0472295	1.0006648	0.0	0.0
59.87951548799174	791.0	467.0	0.035645075	0.83774954	1.0472295	1.0006648	0.0	0.0
59.89609219500562	792.0	468.0	0.035156786	0.83774954	1.0472295	1.0006648	0.0	0.0
59.912024728997494	793.0	468.0	0.035156786	0.83774954	1.0472295	1.0006648	0.0	0.0
59.92955646799237	795.0	469.0	0.034668498	0.80284184	1.0472295	1.03199	0.0	0.0
59.945860470994376	795.0	470.0	0.03320363	0.80284184	1.0472295	1.03199	0.0	0.0
59.962199475005036	796.0	470.0	0.028320745	0.80284184	1.0472295	1.03199	0.0	0.0
59.97959786800493	797.0	470.0	0.021484703	0.80284184	1.0472295	1.03199	0.0	0.0
59.99589235600433	797.0	471.0	0.015625238	0.80284184	1.0472295	1.03199	0.0	0.0
60.01291488799325	797.0	471.0	0.009765774	0.80284184	1.0472295	1.03199	0.0	0.0
60.0303074419935	798.0	471.0	0.0053711757	0.80284184	1.0472295	1.03199	0.0	0.0
60.045832617994165	798.0	472.0	0.0014648661	0.80284184	1.0472295	1.03199	0.0	0.0
Pause
61.27986887500447	802.0	470.0	0.015625238	0.7679342	1.0472295	1.0622227	0.0	0.0
61.29644759600342	801.0	470.0	0.016113527	0.7679342	1.0472295	1.0622227	0.0	0.0
61.31402228699881	799.0	469.0	0.017090105	0.80284184	1.0472295	1.03199	0.0	0.0
61.329910460000974	796.0	468.0	0.017578393	0.80284184	1.0472295	1.03199	0.0	0.0
61.346388660997036	793.0	468.0	0.018066682	0.80284184	1.0472295	1.03199	0.0	0.0
61.363897884002654	790.0	468.0	0.017578393	0.80284184	1.0472295	1.03199	0.0	0.0
61.38080706099572	786.0	467.0	0.017578393	0.80284184	1.0472295	1.03199	0.0	0.0
61.39785226699314	782.0	467.0	0.017578393	0.80284184	1.0472295	1.03199	0.0	0.0
61.41320096499112	778.0	466.0	0.017578393	0.83774954	1.0472295	1.0006648	0.0	0.0
61.43083736699191	775.0	466.0	0.017578393	0.83774954	1.0472295	1.0006648	0.0	0.0
61.44663924199995	772.0	466.0	0.017578393	0.83774954	1.0472295	1.0006648	0.0	0.0
61.46415674900345	767.0	467.0	0.01855497	0.8726572	1.0472295	0.9681709	0.0	0.0
61.47991823499615	764.0	468.0	0.020508125	0.8726572	1.0472295	0.9681709	0.0	0.0
61.49671731599665	760.0	470.0	0.021484703	0.8726572	1.0472295	0.9681709	0.0	0.0
61.51418439600093	754.0	475.0	0.016113527	0.8726572	1.0472295	0.9681709	0.0	0.0
Pause
61.76360606199887	744.0	476.0	0.018066682	0.94247246	1.0472295	0.8993648	0.0	0.0
61.78008192399284	739.0	481.0	0.01855497	0.94247246	1.0472295	0.8993648	0.0	0.0
61.797697554997285	736.0	484.0	0.016113527	0.94247246	1.0472295	0.8993648	0.0	0.0
61.814459257991984	733.0	490.0	0.0024414435	0.9773801	1.0472295	0.86289513	0.0	0.0
Pause
62.43163842899958	731.0	492.0	0.025391012	0.94247246	1.0472295	0.8993648	0.0	0.0
62.4477601940016	727.0	498.0	0.025391012	0.94247246	1.0472295	0.8993648	0.0	0.0
62.462924139996176	724.0	504.0	0.024414435	0.94247246	1.0472295	0.8993648	0.0	0.0
62.48083437299647	722.0	508.0	0.023437858	0.9773801	1.0123218	0.8236207	0.0	0.0
62.49796611099737	720.0	512.0	0.02246128	1.0122877	0.94250655	0.7103383	0.0	0.0
62.513948866995634	720.0	512.0	0.017578393	1.0122877	0.9075989	0.6746481	0.0	0.0
62.531725704000564	720.0	512.0	0.017090105	1.0471954	0.8726913	0.6026946	0.0	0.0
62.548383471992565	721.0	511.0	0.011718929	1.0471954	0.8377836	0.5701984	0.0	0.0
62.56403826299356	722.0	509.0	0.006347753	1.0471954	0.8377836	0.5701984	0.0	0.0
62.5815495269926	724.0	507.0	0.0039063096	1.0471954	0.8377836	0.5701984	0.0	0.0
62.59825137999724	726.0	505.0	0.004882887	1.0471954	0.8726913	0.6026946	0.0	0.0
62.61218424599792	726.0	504.0	0.008300908	1.0471954	0.8726913	0.6026946	0.0	0.0
62.62879392900504	726.0	505.0	0.017090105	1.0471954	0.9075989	0.63643706	0.0	0.0
62.64836072199978	726.0	506.0	0.022949569	1.0471954	0.9075989	0.63643706	0.0	0.0
62.66411854499893	725.0	510.0	0.024902724	1.0471954	0.9075989	0.63643706	0.0	0.0
62.68127758199989	723.0	514.0	0.025879301	1.0471954	0.9075989	0.63643706	0.0	0.0
62.6984886739956	720.0	520.0	0.026855879	1.0471954	0.9075989	0.63643706	0.0	0.0
62.71395402100461	718.0	524.0	0.027344167	1.0471954	0.8726913	0.6026946	0.0	0.0
62.73099141899729	716.0	527.0	0.026855879	1.0471954	0.8726913	0.6026946	0.0	0.0
62.74530911599868	715.0	531.0	0.023926146	1.0471954	0.8726913	0.6026946	0.0	0.0
62.76494778999768	715.0	533.0	0.013183795	1.0471954	0.8726913	0.6026946	0.0	0.0
62.77933069800201	715.0	533.0	0.0058594644	1.0471954	0.8726913	0.6026946	0.0	0.0
62.79796720200102	715.0	533.0	9.765774E-4	1.0471954	0.8726913	0.6026946	0.0	0.0
62.81471397700079	715.0	533.0	4.882887E-4	1.0471954	0.8726913	0.6026946	0.0	0.0
62.83165180099604	716.0	531.0	3.0518044E-5	1.0471954	0.8726913	0.6026946	0.0	0.0
62.84593560999201	717.0	529.0	3.0518044E-5	1.0471954	0.8726913	0.6026946	0.0	0.0
Pause
62.93115624799975	716.0	534.0	0.020508125	1.0471954	0.8726913	0.6026946	0.0	0.0
62.94558959000278	714.0	539.0	0.021972992	1.0471954	0.8377836	0.5701984	0.0	0.0
62.9621346819913	711.0	546.0	0.023437858	1.0471954	0.80287594	0.53887093	0.0	0.0
62.98118125500332	709.0	550.0	0.024902724	1.0471954	0.7679683	0.5086362	0.0	0.0
62.995461601996794	708.0	555.0	0.024902724	1.0471954	0.73306066	0.47942045	0.0	0.0
63.015470536993234	706.0	560.0	0.024902724	1.0471954	0.698153	0.45115286	0.0	0.0
63.03001033399778	704.0	566.0	0.024414435	1.0471954	0.6632454	0.42376542	0.0	0.0
63.04578069099807	703.0	569.0	0.02246128	1.0471954	0.6283377	0.39719307	0.0	0.0
63.06532158999471	701.0	571.0	0.019531548	1.0471954	0.59343004	0.37137407	0.0	0.0
63.07915968699672	700.0	574.0	0.013672084	1.0471954	0.59343004	0.37137407	0.0	0.0
63.095593106001616	699.0	575.0	0.010254063	1.0471954	0.59343004	0.37137407	0.0	0.0
63.11521944399283	699.0	575.0	0.008789197	1.0471954	0.59343004	0.37137407	0.0	0.0
63.12994582099782	698.0	575.0	0.0043945983	1.0471954	0.59343004	0.37137407	0.0	0.0
63.145839695993345	698.0	575.0	0.0039063096	1.0471954	0.59343004	0.37137407	0.0	0.0
63.16543746300158	698.0	575.0	0.0039063096	1.0471954	0.59343004	0.37137407	0.0	0.0
63.18101528700208	699.0	573.0	0.0043945983	1.0471954	0.59343004	0.37137407	0.0	0.0
63.196200894002686	700.0	571.0	0.0053711757	1.0471954	0.59343004	0.37137407	0.0	0.0
63.21482715700404	701.0	569.0	0.0073243305	1.0471954	0.6283377	0.39719307	0.0	0.0
63.2309790099971	703.0	565.0	0.007812619	1.0471954	0.6283377	0.39719307	0.0	0.0
63.24577089700324	705.0	561.0	0.009765774	1.0471954	0.6632454	0.42376542	0.0	0.0
63.26227289199596	708.0	558.0	0.010742351	1.0471954	0.6632454	0.42376542	0.0	0.0
63.281739376005135	711.0	552.0	0.01123064	1.0471954	0.6632454	0.42376542	0.0	0.0
63.29631813299784	713.0	547.0	0.01123064	1.0471954	0.6632454	0.42376542	0.0	0.0
63.312082021002425	715.0	543.0	0.01123064	1.0471954	0.698153	0.45115286	0.0	0.0
63.331359739997424	718.0	536.0	0.009277485	1.0471954	0.698153	0.45115286	0.0	0.0
63.345979987003375	719.0	531.0	3.0518044E-5	1.0471954	0.73306066	0.47942045	0.0	0.0
Pause
63.74609246599721	722.0	519.0	0.0043945983	0.9773801	0.94250655	0.74831074	0.0	0.0
63.76201707099972	721.0	523.0	0.0043945983	1.0122877	0.94250655	0.7103383	0.0	0.0
63.782631423004204	720.0	526.0	0.0043945983	1.0471954	0.94250655	0.6715048	0.0	0.0
63.79600095099886	719.0	528.0	0.0043945983	1.0471954	0.94250655	0.6715048	0.0	0.0
63.81254809600068	719.0	528.0	0.003418021	1.0471954	0.94250655	0.6715048	0.0	0.0
63.83197224000469	719.0	528.0	0.003418021	1.0471954	0.94250655	0.6715048	0.0	0.0
63.84795408700302	718.0	528.0	3.0518044E-5	1.0471954	0.94250655	0.6715048	0.0	0.0
Pause
63.96259511099197	718.0	531.0	0.006836042	1.0471954	0.9075989	0.63643706	0.0	0.0
63.97930487699341	717.0	534.0	0.009765774	1.0471954	0.8726913	0.6026946	0.0	0.0
63.997301766998135	715.0	540.0	0.010254063	1.0471954	0.8377836	0.5701984	0.0	0.0
64.01300443299988	714.0	543.0	0.012695506	1.0471954	0.8377836	0.5701984	0.0	0.0
64.029577401001	713.0	547.0	0.013183795	1.0471954	0.7679683	0.5086362	0.0	0.0
64.04745429000468	711.0	553.0	0.013183795	1.0471954	0.73306066	0.47942045	0.0	0.0
64.06301800700021	710.0	557.0	0.013183795	1.0471954	0.698153	0.45115286	0.0	0.0
64.07869464899704	708.0	561.0	0.0122072175	1.0471954	0.6632454	0.42376542	0.0	0.0
64.09603561800031	706.0	566.0	0.009765774	1.0471954	0.6632454	0.42376542	0.0	0.0
64.1130993340048	704.0	569.0	0.0029297322	1.0471954	0.6283377	0.39719307	0.0	0.0
Pause
Pause
65.04543186500086	707.0	566.0	0.015625238	1.0471954	0.698153	0.45115286	0.0	0.0
65.06408625599579	706.0	569.0	0.024902724	1.0471954	0.6632454	0.42376542	0.0	0.0
65.08105305599747	703.0	574.0	0.027832456	1.0471954	0.6632454	0.42376542	0.0	0.0
65.09615702599694	701.0	578.0	0.02978561	1.0471954	0.6283377	0.39719307	0.0	0.0
65.11246083499282	700.0	581.0	0.02978561	1.0471954	0.59343004	0.37137407	0.0	0.0
65.1310541129933	699.0	585.0	0.029297322	1.0471954	0.5585224	0.3462494	0.0	0.0
65.14605005599151	698.0	586.0	0.02246128	1.0471954	0.5585224	0.3462494	0.0	0.0
65.16537771000003	698.0	587.0	0.008789197	1.0471954	0.4887071	0.2978619	0.0	0.0
65.18004841299262	698.0	586.0	0.0043945983	1.0471954	0.4887071	0.2978619	0.0	0.0
65.19621756099514	699.0	585.0	9.765774E-4	1.0471954	0.4887071	0.2978619	0.0	0.0
65.21557931299321	699.0	583.0	4.882887E-4	1.0471954	0.4887071	0.2978619	0.0	0.0
65.22921814599249	700.0	582.0	9.765774E-4	1.0471954	0.4887071	0.2978619	0.0	0.0
65.24607394900522	700.0	581.0	0.006836042	1.0471954	0.4887071	0.2978619	0.0	0.0
65.2654158850055	700.0	583.0	0.020996414	1.0471954	0.4887071	0.2978619	0.0	0.0
65.27928505299496	700.0	588.0	0.026855879	1.0471954	0.45379946	0.2744953	0.0	0.0
65.29608566699608	700.0	594.0	0.028320745	1.0471954	0.45379946	0.2744953	0.0	0.0
65.3123672530055	700.0	600.0	0.028320745	1.0471954	0.4188918	0.25161505	0.0	0.0
65.33205363000161	700.0	606.0	0.028320745	1.0471954	0.4188918	0.25161505	0.0	0.0
65.347060383996	701.0	614.0	0.028320745	1.0471954	0.38398415	0.22917534	0.0	0.0
65.36259956599679	701.0	618.0	0.025391012	1.0471954	0.31416884	0.18544407	0.0	0.0
65.38179241999751	702.0	621.0	0.023437858	1.0471954	0.2792612	0.16407043	0.0	0.0
65.39708455000073	704.0	624.0	0.01855497	1.0471954	0.24435355	0.14297265	0.0	0.0
65.41283270799613	704.0	625.0	0.010254063	1.0471954	0.2094459	0.12211342	0.0	0.0
65.43206687299244	704.0	624.0	0.006836042	1.0471954	0.2094459	0.12211342	0.0	0.0
65.44706540400512	704.0	622.0	3.0518044E-5	1.0471954	0.2094459	0.12211342	0.0	0.0
Pause
65.562656116992	706.0	616.0	0.020508125	1.0471954	0.31416884	0.18544407	0.0	0.0
65.58221565499844	706.0	621.0	0.023926146	1.0471954	0.2792612	0.16407043	0.0	0.0
65.59611648399732	707.0	628.0	0.024414435	1.0471954	0.24435355	0.14297265	0.0	0.0
65.61211406199436	708.0	633.0	0.024414435	1.0471954	0.2094459	0.12211342	0.0	0.0
65.62995570000203	710.0	637.0	0.023926146	1.0471954	0.1396306	0.0809668	0.0	0.0
65.64609164200374	712.0	642.0	0.020508125	1.0471954	0.10472295	0.06060979	0.0	0.0
65.66234264199738	713.0	645.0	0.010742351	1.0471954	0.0698153	0.040351782	0.0	0.0
65.68287232299917	715.0	647.0	3.0518044E-5	1.0471954	0.03490765	0.020159498	0.0	0.0
Pause
65.88336261999211	713.0	632.0	0.011718929	1.0471954	0.17453825	0.101456545	0.0	0.0
65.89623739299714	715.0	640.0	0.020019837	1.0471954	0.1396306	0.0809668	0.0	0.0
65.91309386100329	716.0	643.0	0.022949569	1.0471954	0.1396306	0.0809668	0.0	0.0
65.93175248199259	718.0	646.0	0.023437858	1.0471954	0.10472295	0.06060979	0.0	0.0
65.9472438100056	721.0	650.0	0.021972992	1.0471954	0.0698153	0.040351782	0.0	0.0
65.96516610200342	722.0	652.0	0.016601816	1.0471954	-0.0	0.0	0.0	0.0
65.97874387199408	725.0	654.0	0.015625238	1.0471954	-0.0	0.0	0.0	0.0
65.99912583599507	725.0	654.0	0.009277485	1.0471954	-0.0	0.0	0.0	0.0
66.01419926299423	726.0	654.0	0.0039063096	1.0471954	-0.0	0.0	0.0	0.0
Pause
66.22969550399284	726.0	645.0	0.010254063	1.0471954	0.03490765	0.020159498	0.0	0.0
66.24610849199235	728.0	646.0	0.009765774	1.0471954	0.03490765	0.020159498	0.0	0.0
66.26411122099671	730.0	647.0	0.004882887	1.0471954	0.03490765	0.020159498	0.0	0.0
Pause
66.5301374720002	743.0	653.0	0.0122072175	1.0471954	-0.0	0.0	0.0	0.0
66.54949845599185	746.0	653.0	0.015625238	1.0471954	-0.0	0.0	0.0	0.0
66.56509062599798	753.0	654.0	0.016601816	1.0471954	-0.0	0.0	0.0	0.0
66.58013971999753	758.0	654.0	0.017578393	1.0471954	-0.0	0.0	0.0	0.0
66.59951274900232	762.0	655.0	0.017578393	1.0471954	-0.0	0.0	0.0	0.0
66.61523530300474	769.0	656.0	0.018066682	1.0471954	-0.0	0.0	0.0	0.0
66.63111492700409	774.0	656.0	0.018066682	1.0471954	-0.0	0.0	0.0	0.0
66.6462540049979	778.0	657.0	0.018066682	1.0471954	-0.0	0.0	0.0	0.0
66.6661315359961	782.0	658.0	0.018066682	1.0471954	-0.03487356	-0.0201398	0.0	0.0
66.68012906599324	787.0	659.0	0.018066682	1.0471954	-0.03487356	-0.0201398	0.0	0.0
66.69643869699212	790.0	659.0	0.018066682	1.0471954	-0.03487356	-0.0201398	0.0	0.0
66.71574836599757	793.0	660.0	0.018066682	1.0471954	-0.03487356	-0.0201398	0.0	0.0
66.73014560899173	795.0	660.0	0.017578393	1.0471954	-0.03487356	-0.0201398	0.0	0.0
66.74648362399603	796.0	660.0	0.01513695	1.0471954	-0.03487356	-0.0201398	0.0	0.0
66.76565865299199	797.0	660.0	0.01513695	1.0471954	-0.03487356	-0.0201398	0.0	0.0
66.77999902499141	797.0	660.0	0.01513695	1.0471954	-0.03487356	-0.0201398	0.0	0.0
66.79624834700371	796.0	661.0	0.012695506	1.0471954	-0.03487356	-0.0201398	0.0	0.0
66.81280082199373	795.0	661.0	0.006347753	1.0471954	-0.03487356	-0.0201398	0.0	0.0
66.83114843300427	794.0	661.0	3.0518044E-5	1.0471954	-0.03487356	-0.0201398	0.0	0.0
Pause
67.56343425599334	761.0	668.0	0.0039063096	1.0471954	-0.10468886	-0.060589965	0.0	0.0
67.58160187199246	762.0	668.0	0.006347753	1.0471954	-0.10468886	-0.060589965	0.0	0.0
67.5981741459982	765.0	669.0	0.008789197	1.0471954	-0.10468886	-0.060589965	0.0	0.0
67.61512795199815	767.0	669.0	0.011718929	1.0471954	-0.10468886	-0.060589965	0.0	0.0
67.62950723500398	770.0	670.0	0.012695506	1.0471954	-0.10468886	-0.060589965	0.0	0.0
67.64896034599224	773.0	670.0	0.013672084	1.0471954	-0.10468886	-0.060589965	0.0	0.0
67.66591185200377	776.0	670.0	0.015625238	1.0471954	-0.10468886	-0.060589965	0.0	0.0
67.67932199400093	782.0	670.0	0.016601816	1.0471954	-0.10468886	-0.060589965	0.0	0.0
67.69918432900158	783.0	670.0	0.017090105	1.0471954	-0.10468886	-0.060589965	0.0	0.0
67.71317389199976	789.0	670.0	0.016601816	1.0471954	-0.10468886	-0.060589965	0.0	0.0
67.7297096120019	793.0	670.0	0.017090105	1.0471954	-0.10468886	-0.060589965	0.0	0.0
67.74624674899678	797.0	669.0	0.017090105	1.0471954	-0.10468886	-0.060589965	0.0	0.0
67.76317524799379	802.0	669.0	0.017578393	1.0471954	-0.1395965	-0.080946855	0.0	0.0
67.77987051100354	805.0	669.0	0.017578393	1.0471954	-0.10468886	-0.060589965	0.0	0.0
67.79618547200516	808.0	669.0	0.017578393	1.0471954	-0.10468886	-0.060589965	0.0	0.0
67.81419832799293	810.0	669.0	0.017578393	1.0471954	-0.10468886	-0.060589965	0.0	0.0
67.82972908999363	811.0	669.0	0.017578393	1.0471954	-0.10468886	-0.060589965	0.0	0.0
67.84632076800335	813.0	669.0	0.017578393	1.0471954	-0.10468886	-0.060589965	0.0	0.0
67.86420508999436	814.0	669.0	0.017578393	1.0471954	-0.10468886	-0.060589965	0.0	0.0
67.88220850699872	814.0	668.0	0.018066682	1.0471954	-0.10468886	-0.060589965	0.0	0.0
67.89906332199462	814.0	668.0	0.018066682	1.0471954	-0.069781214	-0.040332038	0.0	0.0
67.91337947899592	814.0	668.0	0.017578393	1.0471954	-0.069781214	-0.040332038	0.0	0.0
67.93006496099406	813.0	668.0	0.017578393	1.0471954	-0.069781214	-0.040332038	0.0	0.0
67.9494748589932	811.0	668.0	0.017090105	1.0471954	-0.069781214	-0.040332038	0.0	0.0
67.964193798005	810.0	668.0	0.0122072175	1.0471954	-0.069781214	-0.040332038	0.0	0.0
67.97963587800041	809.0	668.0	0.0073243305	1.0471954	-0.069781214	-0.040332038	0.0	0.0
67.99820737699338	807.0	668.0	0.0073243305	1.0471954	-0.069781214	-0.040332038	0.0	0.0
68.0141967160016	804.0	667.0	0.0073243305	1.0471954	-0.069781214	-0.040332038	0.0	0.0
Pause
68.25021589799144	753.0	670.0	0.008789197	1.0471954	-0.069781214	-0.040332038	0.0	0.0
68.2646114090021	753.0	671.0	0.0073243305	1.0471954	-0.069781214	-0.040332038	0.0	0.0
68.28023651300464	753.0	671.0	0.006836042	1.0471954	-0.10468886	-0.060589965	0.0	0.0
68.29822602099739	755.0	672.0	0.006836042	1.0471954	-0.10468886	-0.060589965	0.0	0.0
68.31533820899494	759.0	673.0	0.006836042	1.0471954	-0.1395965	-0.080946855	0.0	0.0
68.3302287080005	762.0	674.0	0.006836042	1.0471954	-0.1395965	-0.080946855	0.0	0.0
68.34597303799819	766.0	674.0	0.0073243305	1.0471954	-0.1395965	-0.080946855	0.0	0.0
68.36339994599984	773.0	675.0	0.0073243305	1.0471954	-0.1395965	-0.080946855	0.0	0.0
68.38021540899354	777.0	675.0	0.008300908	1.0471954	-0.1395965	-0.080946855	0.0	0.0
68.39641736500198	782.0	675.0	0.010742351	1.0471954	-0.1395965	-0.080946855	0.0	0.0
68.41561359800107	788.0	675.0	0.012695506	1.0471954	-0.1395965	-0.080946855	0.0	0.0
68.43239416599681	796.0	675.0	0.01513695	1.0471954	-0.1395965	-0.080946855	0.0	0.0
68.4467866460036	803.0	674.0	0.016601816	1.0471954	-0.1395965	-0.080946855	0.0	0.0
68.46324232099869	806.0	674.0	0.017090105	1.0471954	-0.1395965	-0.080946855	0.0	0.0
68.4812331419962	812.0	673.0	0.017578393	1.0471954	-0.1395965	-0.080946855	0.0	0.0
68.49648610399163	816.0	672.0	0.017578393	1.0471954	-0.10468886	-0.060589965	0.0	0.0
68.51267609599745	819.0	671.0	0.017578393	1.0471954	-0.10468886	-0.060589965	0.0	0.0
68.53122698399238	823.0	671.0	0.017578393	1.0471954	-0.10468886	-0.060589965	0.0	0.0
68.54659875200014	825.0	670.0	0.017578393	1.0471954	-0.10468886	-0.060589965	0.0	0.0
68.56272811099188	826.0	670.0	0.018066682	1.0471954	-0.10468886	-0.060589965	0.0	0.0
68.58016970100289	827.0	670.0	0.017578393	1.0471954	-0.069781214	-0.040332038	0.0	0.0
68.59639876200526	828.0	669.0	0.018066682	1.0471954	-0.069781214	-0.040332038	0.0	0.0
68.61579650199565	828.0	669.0	0.019531548	1.0471954	-0.069781214	-0.040332038	0.0	0.0
68.63122354999359	828.0	668.0	0.020508125	1.0471954	-0.069781214	-0.040332038	0.0	0.0
68.64659936199314	828.0	668.0	0.020508125	1.0471954	-0.069781214	-0.040332038	0.0	0.0
68.66307247200166	829.0	667.0	0.020508125	1.0471954	-0.069781214	-0.040332038	0.0	0.0
68.67971690899867	829.0	665.0	0.020508125	1.0471954	-0.03487356	-0.0201398	0.0	0.0
68.69646080299572	830.0	664.0	0.020508125	1.0471954	-0.03487356	-0.0201398	0.0	0.0
68.71588574699126	831.0	663.0	0.020508125	1.0471954	-0.0	0.0	0.0	0.0
68.73169325500203	833.0	660.0	0.020996414	1.0471954	-0.0	0.0	0.0	0.0
68.74603477699566	834.0	659.0	0.020996414	1.0471954	-0.0	0.0	0.0	0.0
68.76426489300502	836.0	657.0	0.020996414	1.0471954	-0.0	0.0	0.0	0.0
68.77956057900155	838.0	654.0	0.020996414	1.0471954	-0.0	0.0	0.0	0.0
