time	x	y	pressure	tiltX	tiltY	azimuth	sidePressure	rotation
17.880659618997015	735.0	409.0	0.19977112	0.488673	1.0472295	1.2729796	0.0	0.0
17.941812795994338	712.0	425.0	0.1787747	0.45376536	0.94250655	1.2302792	0.0	0.0
17.9592356380017	707.0	428.0	0.18023957	0.45376536	0.94250655	1.2302792	0.0	0.0
17.976034175997484	687.0	438.0	0.18219273	0.45376536	0.9075989	1.2067609	0.0	0.0
17.992338889001985	669.0	447.0	0.18707561	0.45376536	0.9075989	1.2067609	0.0	0.0
18.011399755996536	647.0	458.0	0.19000535	0.488673	0.8726913	1.15118	0.0	0.0
18.027344975998858	603.0	480.0	0.19000535	0.5235807	0.8726913	1.1197	0.0	0.0
18.042359131999547	568.0	499.0	0.19439994	0.59339595	0.8377836	1.0250425	0.0	0.0
18.061413528994308	531.0	520.0	0.19684139	0.6283036	0.80287594	0.9590258	0.0	0.0
18.076992086003884	472.0	553.0	0.19830625	0.6632113	0.80287594	0.9244722	0.0	0.0
18.092356975001167	434.0	575.0	0.19342336	0.6981189	0.7679683	0.8554602	0.0	0.0
18.111535870993976	399.0	596.0	0.19342336	0.7679342	0.73306066	0.7504608	0.0	0.0
18.127120831995853	355.0	624.0	0.19586481	0.80284184	0.698153	0.68102604	0.0	0.0
18.143070737001835	332.0	638.0	0.19732967	0.83774954	0.698153	0.64705914	0.0	0.0
18.159884010994574	315.0	648.0	0.19684139	0.8726572	0.698153	0.61349195	0.0	0.0
18.17640976900293	300.0	656.0	0.19586481	0.8726572	0.6632454	0.58031154	0.0	0.0
18.19236924899451	295.0	659.0	0.19439994	0.8726572	0.6632454	0.58031154	0.0	0.0
18.20918525700108	294.0	660.0	0.14459449	0.9075648	0.6632454	0.5480612	0.0	0.0
18.228369728007237	296.0	660.0	0.045899138	0.9075648	0.6632454	0.5480612	0.0	0.0
Pause
20.126207435998367	293.0	512.0	0.17975128	1.0471954	-0.0	0.0	0.0	0.0
20.14281110500451	293.0	520.0	0.18463416	1.0471954	-0.0	0.0	0.0	0.0
20.15846685100405	294.0	531.0	0.18951705	1.0471954	0.03490765	0.020159498	0.0	0.0
20.17623598499631	296.0	546.0	0.1914702	1.0122877	0.03490765	0.021818278	0.0	0.0
20.192818755996996	299.0	578.0	0.19098192	1.0122877	0.03490765	0.021818278	0.0	0.0
20.209132268995745	300.0	605.0	0.1914702	1.0122877	-0.0	0.0	0.0	0.0
20.226225015998352	300.0	638.0	0.22616923	0.9773801	-0.0	0.0	0.0	0.0
20.243791795001016	297.0	696.0	0.27356374	0.9773801	-0.03487356	-0.02352793	0.0	0.0
20.258472383997287	295.0	738.0	0.29456016	0.9773801	-0.10468886	-0.070754975	0.0	0.0
20.277827505997266	293.0	781.0	0.26868087	0.9773801	-0.20941181	-0.14238296	0.0	0.0
20.294441539997933	292.0	840.0	0.11087205	0.94247246	-0.31413478	-0.23180768	0.0	0.0
Pause
26.128248075998272	547.0	763.0	0.32434577	0.6632113	0.03490765	0.044669453	0.0	0.0
26.14359605300706	547.0	763.0	0.31458	0.6632113	0.0698153	0.08926964	0.0	0.0
26.159739914000966	547.0	763.0	0.31653315	0.6981189	0.0698153	0.08314809	0.0	0.0
26.177200406993506	547.0	761.0	0.31702143	0.6981189	0.10472295	0.12461635	0.0	0.0
26.193912843998987	551.0	758.0	0.3184863	0.73302656	0.10472295	0.11621044	0.0	0.0
26.2098077940027	556.0	754.0	0.3184863	0.73302656	0.10472295	0.11621044	0.0	0.0
26.227243614994222	565.0	748.0	0.31311512	0.6981189	0.10472295	0.12461635	0.0	0.0
26.24396402000275	590.0	730.0	0.29846647	0.6981189	0.0698153	0.08314809	0.0	0.0
26.25979194699903	613.0	713.0	0.27698177	0.6632113	0.0698153	0.08926964	0.0	0.0
26.27729911300412	641.0	691.0	0.25400168	0.6632113	0.10472295	0.13373227	0.0	0.0
26.293975983993732	690.0	652.0	0.2530251	0.6283036	0.1396306	0.19108956	0.0	0.0
26.3104211280006	724.0	623.0	0.25497827	0.59339595	0.17453825	0.25570953	0.0	0.0
26.32722989699687	759.0	593.0	0.19732967	0.5584883	0.2094459	0.3279045	0.0	0.0
26.344015159993432	808.0	553.0	0.098664835	0.5235807	0.24435355	0.40768406	0.0	0.0
Pause
32.14404339299654	292.0	498.0	0.038574807	1.0471954	1.0472295	0.7854375	0.0	0.0
32.160476731995004	293.0	498.0	0.062012665	1.0471954	1.0472295	0.7854375	0.0	0.0
32.176807709998684	292.0	498.0	0.07180896	1.0471954	1.0472295	0.7854375	0.0	0.0
32.19446649600286	291.0	499.0	0.07718013	1.0471954	1.0472295	0.7854375	0.0	0.0
32.2109769420058	288.0	501.0	0.08059815	1.0471954	1.0472295	0.7854375	0.0	0.0
32.22747333400184	285.0	503.0	0.08499275	1.0471954	1.0472295	0.7854375	0.0	0.0
32.24510553400614	282.0	505.0	0.09182879	1.0471954	1.0472295	0.7854375	0.0	0.0
32.26053049600159	275.0	509.0	0.09427024	1.0471954	1.0472295	0.7854375	0.0	0.0
32.276023479993455	271.0	512.0	0.09427024	1.0471954	1.0472295	0.7854375	0.0	0.0
32.292577093001455	267.0	515.0	0.09427024	1.0471954	1.0472295	0.7854375	0.0	0.0
32.30914304300677	264.0	517.0	0.09427024	1.0471954	1.0472295	0.7854375	0.0	0.0
32.3260217729985	264.0	518.0	0.09036393	1.0471954	1.0472295	0.7854375	0.0	0.0
32.34256339300191	265.0	517.0	0.094758525	1.0471954	1.0472295	0.7854375	0.0	0.0
32.3602409830055	267.0	514.0	0.0957351	1.0471954	1.0472295	0.7854375	0.0	0.0
32.37656641000649	273.0	510.0	0.09622339	1.0471954	1.0472295	0.7854375	0.0	0.0
32.393124235997675	277.0	507.0	0.09671168	1.0471954	1.0472295	0.7854375	0.0	0.0
32.41035583500343	283.0	503.0	0.0957351	1.0471954	1.0472295	0.7854375	0.0	0.0
32.426924240993685	287.0	500.0	0.08987564	1.0471954	1.0472295	0.7854375	0.0	0.0
32.44403722000425	290.0	498.0	0.08889906	1.0471954	1.0472295	0.7854375	0.0	0.0
32.46051725599682	294.0	496.0	0.08889906	1.0471954	1.0472295	0.7854375	0.0	0.0
32.477432672007126	295.0	495.0	0.07718013	1.0471954	1.0472295	0.7854375	0.0	0.0
32.493407738002134	296.0	494.0	0.058106355	1.0471954	1.0472295	0.7854375	0.0	0.0
32.511045392995584	296.0	494.0	0.058106355	1.0471954	1.0472295	0.7854375	0.0	0.0
32.527047401003074	295.0	495.0	0.058106355	1.0471954	1.0472295	0.7854375	0.0	0.0
32.544757601994206	294.0	496.0	0.058106355	1.0471954	1.0472295	0.7854375	0.0	0.0
32.56004018099338	290.0	499.0	0.058594644	1.0471954	1.0472295	0.7854375	0.0	0.0
32.57530261200736	286.0	501.0	0.06396582	1.0471954	1.0472295	0.7854375	0.0	0.0
32.592652129998896	282.0	503.0	0.079621576	1.0471954	1.0472295	0.7854375	0.0	0.0
32.60901475099672	277.0	505.0	0.08645762	1.0471954	1.0472295	0.7854375	0.0	0.0
32.62766078500135	268.0	509.0	0.090852216	1.0471954	1.0472295	0.7854375	0.0	0.0
32.643298504000995	263.0	511.0	0.09719997	1.0471954	1.0472295	0.7854375	0.0	0.0
32.661003037996124	258.0	513.0	0.09817655	1.0471954	1.0472295	0.7854375	0.0	0.0
32.676547181006754	255.0	515.0	0.09768826	1.0471954	1.0472295	0.7854375	0.0	0.0
32.69418417199631	255.0	515.0	0.09378195	1.0471954	1.0472295	0.7854375	0.0	0.0
32.71185673099535	257.0	515.0	0.095246814	1.0471954	1.0472295	0.7854375	0.0	0.0
32.72804387100041	259.0	514.0	0.0957351	1.0471954	1.0472295	0.7854375	0.0	0.0
32.7425608689955	263.0	512.0	0.09427024	1.0471954	1.0472295	0.7854375	0.0	0.0
32.76167465200706	268.0	509.0	0.09329366	1.0471954	1.0472295	0.7854375	0.0	0.0
32.77803762200347	276.0	505.0	0.09378195	1.0471954	1.0472295	0.7854375	0.0	0.0
32.792399769998156	281.0	502.0	0.09378195	1.0471954	1.0472295	0.7854375	0.0	0.0
32.81172649700602	286.0	499.0	0.090852216	1.0471954	1.0472295	0.7854375	0.0	0.0
32.828065299006994	291.0	496.0	0.083527885	1.0471954	1.0472295	0.7854375	0.0	0.0
32.84295022400329	294.0	494.0	0.08206302	1.0471954	1.0472295	0.7854375	0.0	0.0
32.86217518099875	296.0	493.0	0.07132067	1.0471954	1.0472295	0.7854375	0.0	0.0
32.87759724499483	298.0	492.0	0.06396582	1.0471954	1.0472295	0.7854375	0.0	0.0
32.89300524399732	298.0	492.0	0.05957122	1.0471954	1.0472295	0.7854375	0.0	0.0
32.90945832899888	298.0	493.0	0.05957122	1.0471954	1.0472295	0.7854375	0.0	0.0
32.92714195800363	296.0	494.0	0.06005951	1.0471954	1.0472295	0.7854375	0.0	0.0
32.94307720499637	293.0	496.0	0.0605478	1.0471954	1.0472295	0.7854375	0.0	0.0
32.959602026996436	291.0	498.0	0.072297245	1.0471954	1.0472295	0.7854375	0.0	0.0
32.97619885900349	285.0	501.0	0.076203555	1.0471954	1.0472295	0.7854375	0.0	0.0
32.99285437700746	279.0	504.0	0.07718013	1.0471954	1.0472295	0.7854375	0.0	0.0
33.01138262099994	274.0	507.0	0.07766842	1.0471954	1.0472295	0.7854375	0.0	0.0
33.02608931000577	266.0	512.0	0.079621576	1.0471954	1.0472295	0.7854375	0.0	0.0
33.043078632996185	262.0	515.0	0.08059815	1.0471954	1.0472295	0.7854375	0.0	0.0
33.06246673800342	260.0	516.0	0.08108644	1.0471954	1.0472295	0.7854375	0.0	0.0
33.077415467996616	259.0	518.0	0.08059815	1.0471954	1.0472295	0.7854375	0.0	0.0
33.09311667000293	258.0	518.0	0.075715266	1.0471954	1.0472295	0.7854375	0.0	0.0
33.10935850099486	258.0	518.0	0.06250095	1.0471954	1.0472295	0.7854375	0.0	0.0
33.12583208999422	259.0	518.0	0.06445411	1.0471954	1.0472295	0.7854375	0.0	0.0
33.14406840399897	261.0	515.0	0.065430686	1.0471954	1.0472295	0.7854375	0.0	0.0
33.16000216199609	264.0	513.0	0.068879224	1.0471954	1.0472295	0.7854375	0.0	0.0
33.1775804659992	268.0	508.0	0.07522698	1.0471954	1.0472295	0.7854375	0.0	0.0
33.19407786600641	272.0	504.0	0.076203555	1.0471954	1.0472295	0.7854375	0.0	0.0
33.20982134400401	276.0	501.0	0.076203555	1.0471954	1.0472295	0.7854375	0.0	0.0
33.2280839390005	279.0	498.0	0.076203555	1.0471954	1.0472295	0.7854375	0.0	0.0
33.24408047100587	284.0	495.0	0.07522698	1.0471954	1.0472295	0.7854375	0.0	0.0
33.26119925000239	286.0	494.0	0.07034409	1.0471954	1.0472295	0.7854375	0.0	0.0
33.276077839007485	288.0	493.0	0.06396582	1.0471954	1.0472295	0.7854375	0.0	0.0
33.29246690600121	288.0	493.0	0.061524376	1.0471954	1.0472295	0.7854375	0.0	0.0
33.30950653500622	288.0	493.0	0.06396582	1.0471954	1.0472295	0.7854375	0.0	0.0
33.326044025001465	286.0	495.0	0.072785534	1.0471954	1.0472295	0.7854375	0.0	0.0
33.34253153800091	282.0	498.0	0.076203555	1.0471954	1.0472295	0.7854375	0.0	0.0
33.35976211099478	277.0	501.0	0.084016174	1.0471954	1.0472295	0.7854375	0.0	0.0
33.376106937997974	273.0	505.0	0.08938735	1.0471954	1.0472295	0.7854375	0.0	0.0
33.39243752299808	265.0	510.0	0.091340505	1.0471954	1.0472295	0.7854375	0.0	0.0
33.40900736099866	261.0	513.0	0.09182879	1.0471954	1.0472295	0.7854375	0.0	0.0
33.428442457006895	257.0	515.0	0.09280537	1.0471954	1.0472295	0.7854375	0.0	0.0
33.44263664299797	254.0	518.0	0.09280537	1.0471954	1.0472295	0.7854375	0.0	0.0
33.45895038600429	254.0	518.0	0.08255131	1.0471954	1.0472295	0.7854375	0.0	0.0
33.47614017500018	254.0	518.0	0.072297245	1.0471954	1.0472295	0.7854375	0.0	0.0
Pause
34.942608862998895	222.0	515.0	0.13629359	0.6981189	-1.0471954	-1.1196706	0.0	0.0
34.95925110200187	223.0	515.0	0.14068818	0.6632113	-1.0471954	-1.1470573	0.0	0.0
34.97623205400305	225.0	515.0	0.15191883	0.6632113	-1.0471954	-1.1470573	0.0	0.0
34.99366191899753	229.0	515.0	0.15436026	0.6283036	-1.0471954	-1.1736288	0.0	0.0
35.00924735600711	239.0	515.0	0.1397116	0.6283036	-1.0471954	-1.1736288	0.0	0.0
35.02568624699779	246.0	516.0	0.10403601	0.59339595	-1.0471954	-1.1994472	0.0	0.0
35.04489618699881	252.0	517.0	0.053711757	0.5235807	-1.0471954	-1.2490568	0.0	0.0
35.06015329300135	258.0	519.0	0.034668498	0.488673	-1.0471954	-1.2729574	0.0	0.0
35.07539054499648	259.0	519.0	0.04101625	0.45376536	-1.0471954	-1.2963237	0.0	0.0
35.093371159993694	257.0	519.0	0.040039673	0.38395005	-1.0471954	-1.3416427	0.0	0.0
35.109698537999066	250.0	518.0	0.07034409	0.38395005	-1.0471954	-1.3416427	0.0	0.0
35.12631189600506	246.0	518.0	0.08255131	0.38395005	-1.0471954	-1.3416427	0.0	0.0
35.143024161006906	234.0	516.0	0.095246814	0.41885772	-1.0471954	-1.3192034	0.0	0.0
35.159922915001516	222.0	515.0	0.105989166	0.45376536	-1.0471954	-1.2963237	0.0	0.0
35.17800665499817	216.0	514.0	0.1089189	0.5235807	-1.0471954	-1.2490568	0.0	0.0
35.19340057299996	211.0	514.0	0.1089189	0.59339595	-1.0471954	-1.1994472	0.0	0.0
35.21077391199651	207.0	513.0	0.10940719	0.6283036	-1.0471954	-1.1736288	0.0	0.0
35.22618780200719	206.0	513.0	0.10843061	0.6632113	-1.0471954	-1.1470573	0.0	0.0
35.24261652500718	207.0	513.0	0.113801785	0.6981189	-1.0471954	-1.1196706	0.0	0.0
35.260928621006315	212.0	514.0	0.117219806	0.6981189	-1.0471954	-1.1196706	0.0	0.0
35.27730780400452	220.0	515.0	0.11868467	0.6981189	-1.0471954	-1.1196706	0.0	0.0
35.29393877899565	228.0	517.0	0.11819638	0.6632113	-1.0471954	-1.1470573	0.0	0.0
35.310153284997796	241.0	519.0	0.109895475	0.6283036	-1.0471954	-1.1736288	0.0	0.0
35.32566135599336	247.0	520.0	0.09231708	0.59339595	-1.0471954	-1.1994472	0.0	0.0
35.34235899300256	251.0	520.0	0.0830396	0.5235807	-1.0471954	-1.2490568	0.0	0.0
35.359602595999604	253.0	520.0	0.07327382	0.45376536	-1.0471954	-1.2963237	0.0	0.0
35.376962840004126	253.0	520.0	0.07180896	0.41885772	-1.0471954	-1.3192034	0.0	0.0
35.39392911699542	251.0	519.0	0.07180896	0.38395005	-1.0471954	-1.3416427	0.0	0.0
35.410504925006535	245.0	518.0	0.07522698	0.38395005	-1.0471954	-1.3416427	0.0	0.0
35.42583281900443	238.0	518.0	0.087434195	0.38395005	-1.0471954	-1.3416427	0.0	0.0
35.442353980004555	231.0	518.0	0.10843061	0.45376536	-1.0471954	-1.2963237	0.0	0.0
35.45900636499573	224.0	518.0	0.11868467	0.488673	-1.0471954	-1.2729574	0.0	0.0
35.475865753003745	215.0	517.0	0.124544136	0.5235807	-1.0471954	-1.2490568	0.0	0.0
35.4923430189956	212.0	516.0	0.12503242	0.59339595	-1.0471954	-1.1994472	0.0	0.0
35.509214471007	210.0	516.0	0.12503242	0.6283036	-1.0471954	-1.1736288	0.0	0.0
35.52710223699978	210.0	516.0	0.12893873	0.6632113	-1.0471954	-1.1470573	0.0	0.0
35.54240841699357	212.0	516.0	0.13089189	0.6632113	-1.0471954	-1.1470573	0.0	0.0
35.55908903099771	217.0	517.0	0.13186847	0.6632113	-1.0471954	-1.1470573	0.0	0.0
35.5758501310047	229.0	518.0	0.1001297	0.6632113	-1.0471954	-1.1470573	0.0	0.0
Pause
39.24435822700616	209.0	498.0	0.036621653	1.0471954	1.0472295	0.7854375	0.0	0.0
39.259731076002936	211.0	495.0	0.043945983	1.0471954	1.0472295	0.7854375	0.0	0.0
39.27860871099983	213.0	493.0	0.046387427	1.0471954	1.0472295	0.7854375	0.0	0.0
39.29437431700353	218.0	489.0	0.050782025	1.0471954	1.0472295	0.7854375	0.0	0.0
39.309574799000984	220.0	486.0	0.055664912	1.0471954	1.0472295	0.7854375	0.0	0.0
39.32670409399725	221.0	484.0	0.059082933	1.0471954	1.0472295	0.7854375	0.0	0.0
39.34389671200188	222.0	483.0	0.06936751	1.0471954	1.0472295	0.7854375	0.0	0.0
39.360107942993636	221.0	483.0	0.07180896	1.0471954	1.0472295	0.7854375	0.0	0.0
39.378385624004295	219.0	483.0	0.07327382	1.0471954	1.0472295	0.7854375	0.0	0.0
39.39473683900724	216.0	486.0	0.07376211	1.0471954	1.0472295	0.7854375	0.0	0.0
39.41006346800714	213.0	488.0	0.07180896	1.0471954	1.0472295	0.7854375	0.0	0.0
39.42629380700237	209.0	492.0	0.065430686	1.0471954	1.0472295	0.7854375	0.0	0.0
39.4431555649935	205.0	497.0	0.06298924	1.0471954	1.0472295	0.7854375	0.0	0.0
39.459367949995794	203.0	500.0	0.062012665	1.0471954	1.0472295	0.7854375	0.0	0.0
39.47705520100135	201.0	502.0	0.061036088	1.0471954	1.0472295	0.7854375	0.0	0.0
39.493492673005676	201.0	503.0	0.050293736	1.0471954	1.0472295	0.7854375	0.0	0.0
39.509986738994485	201.0	503.0	0.050293736	1.0471954	1.0472295	0.7854375	0.0	0.0
39.528924498998094	202.0	503.0	0.050293736	1.0471954	1.0472295	0.7854375	0.0	0.0
39.54399836799712	203.0	501.0	0.050782025	1.0471954	1.0472295	0.7854375	0.0	0.0
39.56033170000592	205.0	500.0	0.050782025	1.0471954	1.0472295	0.7854375	0.0	0.0
39.57877632899908	207.0	497.0	0.05224689	1.0471954	1.0472295	0.7854375	0.0	0.0
39.59419392400014	211.0	493.0	0.05322347	1.0471954	1.0472295	0.7854375	0.0	0.0
39.61039615700429	214.0	490.0	0.05322347	1.0471954	1.0472295	0.7854375	0.0	0.0
39.62809613700665	216.0	488.0	0.05322347	1.0471954	1.0472295	0.7854375	0.0	0.0
39.64496008500282	218.0	485.0	0.053711757	1.0471954	1.0472295	0.7854375	0.0	0.0
39.660372113998164	218.0	485.0	0.0302739	1.0471954	1.0472295	0.7854375	0.0	0.0
Pause
39.87963360900176	215.0	482.0	0.055664912	1.0471954	1.0472295	0.7854375	0.0	0.0
39.892258926003706	217.0	480.0	0.06298924	1.0471954	1.0472295	0.7854375	0.0	0.0
39.911402426005225	219.0	478.0	0.06741436	1.0471954	1.0472295	0.7854375	0.0	0.0
39.92612848599674	222.0	477.0	0.07132067	1.0471954	1.0472295	0.7854375	0.0	0.0
39.94241405799403	224.0	476.0	0.07376211	1.0471954	1.0472295	0.7854375	0.0	0.0
39.96139368999866	229.0	475.0	0.07473869	1.0471954	1.0472295	0.7854375	0.0	0.0
39.97638375000679	233.0	475.0	0.075715266	1.0471954	1.0472295	0.7854375	0.0	0.0
39.99473540800682	236.0	475.0	0.07913329	1.0471954	1.0472295	0.7854375	0.0	0.0
40.01040491400636	241.0	475.0	0.080109864	1.0471954	1.0472295	0.7854375	0.0	0.0
40.02640288199473	244.0	475.0	0.08108644	1.0471954	1.0472295	0.7854375	0.0	0.0
40.044723910003086	246.0	475.0	0.08108644	1.0471954	1.0472295	0.7854375	0.0	0.0
40.06041967400233	249.0	475.0	0.08157473	1.0471954	1.0472295	0.7854375	0.0	0.0
40.07717090900405	252.0	475.0	0.08206302	1.0471954	1.0472295	0.7854375	0.0	0.0
40.09277412900701	254.0	475.0	0.083527885	1.0471954	1.0472295	0.7854375	0.0	0.0
40.10994472699531	257.0	475.0	0.08499275	1.0471954	1.0472295	0.7854375	0.0	0.0
40.12640774600732	260.0	474.0	0.08596933	1.0471954	1.0472295	0.7854375	0.0	0.0
40.14270603199839	262.0	474.0	0.08792248	1.0471954	1.0472295	0.7854375	0.0	0.0
40.15977892599767	264.0	474.0	0.08889906	1.0471954	1.0472295	0.7854375	0.0	0.0
40.176334859002964	266.0	475.0	0.09036393	1.0471954	1.0472295	0.7854375	0.0	0.0
40.19292550900718	268.0	475.0	0.09182879	1.0471954	1.0472295	0.7854375	0.0	0.0
40.20957839500625	270.0	475.0	0.09182879	1.0471954	1.0472295	0.7854375	0.0	0.0
40.22719906999555	273.0	476.0	0.09231708	1.0471954	1.0472295	0.7854375	0.0	0.0
40.24489845200151	274.0	476.0	0.09329366	1.0471954	1.0472295	0.7854375	0.0	0.0
40.26041442899441	276.0	477.0	0.09427024	1.0471954	1.0472295	0.7854375	0.0	0.0
40.27684960199986	277.0	477.0	0.09622339	1.0471954	1.0472295	0.7854375	0.0	0.0
40.29453701199964	278.0	477.0	0.09768826	1.0471954	1.0472295	0.7854375	0.0	0.0
40.30935977399349	280.0	478.0	0.098664835	1.0471954	1.0472295	0.7854375	0.0	0.0
40.32736393700179	281.0	478.0	0.099153124	1.0471954	1.0472295	0.7854375	0.0	0.0
40.34351675299695	282.0	478.0	0.099153124	1.0471954	1.0472295	0.7854375	0.0	0.0
40.361198614002205	283.0	479.0	0.09964141	1.0471954	1.0472295	0.7854375	0.0	0.0
40.37645325199992	284.0	479.0	0.09964141	1.0471954	1.0472295	0.7854375	0.0	0.0
40.39256454599672	284.0	479.0	0.09964141	1.0471954	1.0472295	0.7854375	0.0	0.0
40.41022209500079	285.0	480.0	0.09964141	1.0471954	1.0472295	0.7854375	0.0	0.0
40.426743527001236	286.0	480.0	0.09964141	1.0471954	1.0472295	0.7854375	0.0	0.0
40.442425881003146	286.0	481.0	0.09964141	1.0471954	1.0472295	0.7854375	0.0	0.0
40.46009066099941	287.0	481.0	0.09964141	1.0471954	1.0472295	0.7854375	0.0	0.0
40.47774314599519	288.0	482.0	0.09964141	1.0471954	1.0472295	0.7854375	0.0	0.0
40.49424636299955	288.0	483.0	0.1001297	1.0471954	1.0472295	0.7854375	0.0	0.0
40.51188179200108	289.0	483.0	0.1001297	1.0471954	1.0472295	0.7854375	0.0	0.0
40.52828630000295	290.0	484.0	0.1001297	1.0471954	1.0472295	0.7854375	0.0	0.0
40.542581660003634	290.0	485.0	0.09964141	1.0471954	1.0472295	0.7854375	0.0	0.0
40.55987808799546	291.0	485.0	0.09427024	1.0471954	1.0472295	0.7854375	0.0	0.0
40.578446914005326	291.0	486.0	0.08889906	1.0471954	1.0472295	0.7854375	0.0	0.0
40.59412362400326	292.0	487.0	0.08499275	1.0471954	1.0472295	0.7854375	0.0	0.0
40.610946340006194	292.0	487.0	0.083527885	1.0471954	1.0472295	0.7854375	0.0	0.0
40.627758703994914	293.0	487.0	0.08206302	1.0471954	1.0472295	0.7854375	0.0	0.0
40.64354987999832	293.0	488.0	0.075715266	1.0471954	1.0472295	0.7854375	0.0	0.0
40.66118166000524	293.0	488.0	0.062012665	1.0471954	1.0472295	0.7854375	0.0	0.0
40.67657908699766	293.0	489.0	0.055176623	1.0471954	1.0472295	0.7854375	0.0	0.0
40.6932343840017	293.0	490.0	0.055664912	1.0471954	1.0472295	0.7854375	0.0	0.0
40.71105376200285	293.0	490.0	0.050782025	1.0471954	1.0472295	0.7854375	0.0	0.0
40.7290034990001	293.0	491.0	0.032227054	1.0471954	1.0472295	0.7854375	0.0	0.0
40.74344244800159	293.0	491.0	0.020508125	1.0471954	1.0472295	0.7854375	0.0	0.0
Pause
40.84444214400719	293.0	489.0	0.021484703	1.0471954	1.0472295	0.7854375	0.0	0.0
40.85981135600014	292.0	488.0	0.020019837	1.0471954	1.0472295	0.7854375	0.0	0.0
40.878739050996955	291.0	488.0	0.019531548	1.0471954	1.0472295	0.7854375	0.0	0.0
40.893991913995706	290.0	486.0	0.025879301	1.0471954	1.0472295	0.7854375	0.0	0.0
40.910416223006905	289.0	485.0	0.046387427	1.0471954	1.0472295	0.7854375	0.0	0.0
